[CFLP-PROBLEMFILE]
generated at:  Tue Mar 19 16:57:35 2024
#customers: 100 ; #depot sites: 100 ; ratio: 10.00

[DEPOTS]
capacity fixcost varcost xcoord ycoord name
117 836 0 327 910 Depot0
340 1399 0 442 53 Depot1
288 1240 0 364 132 Depot2
113 761 0 677 327 Depot3
211 1131 0 13 850 Depot4
295 1205 0 978 776 Depot5
320 1317 0 513 367 Depot6
34 420 0 464 967 Depot7
235 1121 0 432 475 Depot8
66 580 0 321 609 Depot9
75 608 0 761 809 Depot10
305 1345 0 720 830 Depot11
284 1267 0 330 84 Depot12
288 1325 0 323 957 Depot13
290 1336 0 388 598 Depot14
318 1369 0 801 122 Depot15
310 1286 0 531 320 Depot16
308 1340 0 248 970 Depot17
62 555 0 337 660 Depot18
154 971 0 330 521 Depot19
239 1195 0 479 266 Depot20
141 901 0 716 923 Depot21
196 1106 0 930 852 Depot22
342 1353 0 844 587 Depot23
98 768 0 862 195 Depot24
248 1207 0 393 467 Depot25
75 630 0 926 555 Depot26
276 1202 0 999 700 Depot27
246 1106 0 438 133 Depot28
211 1080 0 131 573 Depot29
128 929 0 48 454 Depot30
53 515 0 858 674 Depot31
162 966 0 414 667 Depot32
124 829 0 350 669 Depot33
36 469 0 783 877 Depot34
207 1080 0 832 621 Depot35
130 795 0 165 276 Depot36
276 1246 0 936 147 Depot37
220 1130 0 161 524 Depot38
38 502 0 502 297 Depot39
218 1091 0 442 369 Depot40
45 538 0 712 132 Depot41
58 609 0 587 654 Depot42
60 586 0 615 627 Depot43
152 944 0 432 624 Depot44
216 1135 0 533 706 Depot45
218 1044 0 646 199 Depot46
145 881 0 260 453 Depot47
337 1400 0 482 192 Depot48
92 741 0 559 937 Depot49
218 1082 0 124 250 Depot50
318 1280 0 8 217 Depot51
145 911 0 564 950 Depot52
241 1170 0 725 293 Depot53
222 1111 0 307 239 Depot54
203 1003 0 321 326 Depot55
342 1328 0 148 856 Depot56
239 1186 0 20 569 Depot57
36 434 0 278 812 Depot58
201 1115 0 716 781 Depot59
167 960 0 590 481 Depot60
295 1271 0 788 187 Depot61
248 1242 0 645 926 Depot62
32 430 0 271 546 Depot63
207 1064 0 368 589 Depot64
222 1163 0 57 209 Depot65
194 1055 0 983 338 Depot66
314 1301 0 481 322 Depot67
218 1093 0 443 919 Depot68
308 1315 0 569 660 Depot69
141 933 0 410 130 Depot70
139 830 0 647 635 Depot71
261 1248 0 636 57 Depot72
331 1249 0 374 51 Depot73
73 603 0 90 792 Depot74
337 1331 0 535 885 Depot75
96 735 0 361 853 Depot76
132 918 0 777 348 Depot77
137 850 0 985 434 Depot78
103 775 0 638 738 Depot79
143 905 0 708 250 Depot80
177 995 0 876 342 Depot81
169 1011 0 645 93 Depot82
241 1167 0 621 714 Depot83
316 1394 0 117 485 Depot84
239 1165 0 361 916 Depot85
90 736 0 880 94 Depot86
150 972 0 280 126 Depot87
252 1130 0 447 53 Depot88
286 1263 0 155 929 Depot89
51 506 0 595 923 Depot90
209 1034 0 349 991 Depot91
156 909 0 543 498 Depot92
263 1150 0 269 565 Depot93
150 943 0 748 349 Depot94
26 420 0 640 443 Depot95
30 479 0 548 5 Depot96
38 460 0 86 366 Depot97
318 1236 0 167 361 Depot98
295 1210 0 528 758 Depot99

[CUSTOMERS]
demand xcoord ycoord name
29 732 942 Customer0
13 654 280 Customer1
31 732 561 Customer2
34 44 194 Customer3
6 766 843 Customer4
20 78 960 Customer5
6 853 979 Customer6
31 967 880 Customer7
9 599 702 Customer8
29 734 691 Customer9
34 37 13 Customer10
9 540 19 Customer11
29 792 499 Customer12
15 569 289 Customer13
16 426 567 Customer14
13 745 663 Customer15
31 923 221 Customer16
16 781 895 Customer17
8 272 226 Customer18
9 275 970 Customer19
15 180 647 Customer20
12 739 730 Customer21
32 94 887 Customer22
11 459 397 Customer23
31 704 125 Customer24
31 21 981 Customer25
28 283 598 Customer26
6 132 745 Customer27
7 750 3 Customer28
26 812 82 Customer29
18 234 49 Customer30
34 713 869 Customer31
35 124 900 Customer32
5 20 401 Customer33
26 340 898 Customer34
35 793 670 Customer35
13 541 593 Customer36
15 478 601 Customer37
28 134 893 Customer38
8 499 557 Customer39
6 455 623 Customer40
5 388 345 Customer41
13 997 496 Customer42
13 852 75 Customer43
21 641 918 Customer44
10 728 446 Customer45
9 926 355 Customer46
28 289 551 Customer47
14 473 606 Customer48
12 483 524 Customer49
15 100 185 Customer50
20 963 931 Customer51
35 42 200 Customer52
35 643 955 Customer53
23 17 62 Customer54
24 776 219 Customer55
8 815 284 Customer56
14 797 600 Customer57
26 321 101 Customer58
19 13 787 Customer59
29 699 132 Customer60
7 162 544 Customer61
12 403 203 Customer62
34 98 922 Customer63
30 819 666 Customer64
26 392 125 Customer65
34 278 154 Customer66
18 515 31 Customer67
10 823 152 Customer68
5 259 119 Customer69
31 585 149 Customer70
17 713 859 Customer71
8 901 416 Customer72
9 448 36 Customer73
31 982 125 Customer74
18 286 993 Customer75
13 273 109 Customer76
10 365 98 Customer77
6 735 693 Customer78
26 483 594 Customer79
19 296 107 Customer80
33 16 856 Customer81
5 56 588 Customer82
26 986 138 Customer83
11 206 169 Customer84
12 660 302 Customer85
23 293 382 Customer86
25 919 649 Customer87
22 317 687 Customer88
29 764 544 Customer89
29 437 252 Customer90
18 131 910 Customer91
7 108 943 Customer92
11 411 315 Customer93
26 149 421 Customer94
15 342 434 Customer95
27 197 467 Customer96
25 561 734 Customer97
8 273 533 Customer98
13 825 928 Customer99

[COSTMATRIX]
c= d_eucli(a,b) * 0.01
[MATRIX]
Dim 100 100
117.8160 121.5636 275.7997 209.9345 43.4917 59.3539 36.9176 83.4407 49.9552 153.4015 46.2825 10.1377 274.7768 61.3912 77.8383 106.9767 202.6378 77.5695 38.8267 52.3894 108.2689 2.9807 69.5983 40.9473 235.0505 180.9046 121.2128 21.6211 60.2536 183.3621 151.2429 100.6882 147.1453 23.4762 21.4811 117.6755 113.7069 123.1135 198.1413 54.7825 38.5324 40.5123 41.9175 43.6835 91.8072 30.8702 67.3165 190.2981 110.6797 20.7687 138.1734 204.9196 58.8666 227.1632 188.9410 177.7260 47.2239 112.5301 122.7839 30.7407 139.8886 52.9952 10.6151 206.6285 152.1166 259.0772 222.3863 120.3985 28.9914 16.2860 270.7896 54.1535 71.2153 86.4209 204.3801 36.9145 49.5984 59.5702 34.0509 58.4000 131.5591 203.6226 42.6723 65.9319 84.2828 44.6292 197.9882 233.2059 205.3846 167.3725 40.1103 69.5019 33.7787 65.6782 154.2361 76.1115 257.8217 216.3753 64.8339 35.7138 
205.8446 40.3781 100.9306 17.7908 51.4666 118.4892 9.9408 220.9648 26.5933 135.7528 183.5024 49.8551 109.8147 113.0377 66.3335 28.0550 40.0956 128.0936 39.5890 36.3423 26.3339 77.5179 203.2340 39.7143 69.6562 99.5337 108.3021 32.6118 18.2893 155.8652 113.4874 150.8512 159.3823 24.6849 158.8023 134.6318 63.5721 46.7685 154.0216 12.2358 13.7954 7.9480 49.3940 45.3940 85.9770 44.2851 7.3255 120.4862 27.0486 79.6599 79.6273 129.8129 236.6062 25.2631 80.3652 80.6789 61.3351 97.5467 169.3796 95.9161 61.1735 11.4177 77.5275 158.5454 126.3128 156.3139 113.5849 32.0446 67.2935 19.4695 88.7900 60.3617 17.8980 32.5548 236.1378 110.9866 83.6637 14.0545 21.9043 119.1526 11.7370 76.0634 9.3608 113.1657 63.2279 84.0296 67.3205 101.1163 67.5862 237.4110 187.2533 139.2584 17.1243 52.6910 30.3176 24.5400 79.5749 143.6184 39.4952 64.2626 
155.0418 76.0432 175.2158 81.7281 46.4945 65.3425 17.5542 150.8079 28.0875 120.0001 84.8945 24.2341 180.9035 85.3943 55.3575 57.7706 97.2837 101.3871 32.5774 36.3587 58.2946 43.4824 112.6314 12.6476 120.4046 109.0553 54.3460 18.0609 36.3475 156.2911 124.6173 57.5444 117.3205 19.8487 83.2232 40.8167 82.4977 69.2298 160.2153 28.0110 20.8679 21.4733 22.3940 17.4631 64.3742 24.6223 33.4868 135.5755 62.4000 49.6668 102.4386 160.3137 148.3046 93.8320 122.6375 113.6257 52.3423 99.6863 134.8789 41.9104 47.2656 26.4718 45.0270 156.8229 109.5226 197.9297 114.1560 62.3855 46.0092 9.5355 166.7803 19.1588 41.0449 56.0798 211.5111 68.2542 61.3767 21.7702 16.9852 52.1071 59.2657 86.4934 23.8009 49.1462 68.1646 61.6181 112.6749 156.8297 128.1467 198.4653 112.2465 103.6508 13.9456 50.9319 55.2768 22.4439 158.1269 168.6974 47.9483 36.8671 
223.2708 54.8910 101.0448 219.9193 39.4039 220.0982 29.9934 272.7170 43.1160 144.6963 321.1721 83.5340 88.8631 121.8615 84.8984 98.8541 155.9411 128.3786 44.0367 39.0982 66.1378 118.9771 353.1559 98.0451 253.5802 137.3583 266.8453 64.8461 27.9086 101.1029 46.8055 321.2948 210.1834 28.2516 261.6342 313.6892 19.0018 133.9856 98.0356 37.5551 26.0865 33.5436 92.5148 93.1593 121.6268 70.8001 54.1819 94.4298 61.3206 108.4838 14.6479 8.5440 321.1497 240.8554 61.3691 73.6425 53.6096 52.6074 171.8126 169.5321 178.8821 52.0823 113.6537 142.4081 153.2648 5.1609 322.9923 81.9649 82.7542 35.0992 115.1816 126.9992 48.6116 32.3686 185.9277 152.5825 95.0664 74.9003 58.2674 209.4206 126.6079 278.8701 30.4714 201.9531 33.0018 94.6231 193.6507 61.4003 93.9300 215.5670 265.0038 153.6059 40.9016 47.7286 187.4239 96.8885 145.3335 44.2634 16.5926 96.6165 
128.7842 111.0017 253.2009 178.0305 45.1820 44.4671 32.3436 101.2044 44.7274 145.8043 11.6843 4.3022 253.8415 68.6150 72.0727 93.8404 177.7449 85.3346 37.3121 48.7813 96.6654 11.3208 52.5590 29.4381 203.0725 164.1844 92.2488 16.4030 54.7472 179.4047 146.9890 65.4224 137.7418 22.5462 9.8834 81.0611 107.4126 107.4691 191.5057 48.5180 34.4492 35.6524 33.8405 34.2611 83.8731 27.0292 58.9576 178.8795 99.4352 27.2812 131.0946 196.6154 80.0062 193.0341 174.4815 163.7134 49.4509 111.2619 127.1357 15.1334 116.7300 45.9458 17.6077 196.2698 141.6432 247.2923 186.8807 106.8942 33.1821 13.4441 247.0498 40.7380 63.7342 79.5331 210.1555 42.2617 52.6660 49.5122 27.8365 43.0447 113.2076 169.2681 37.9849 50.4601 81.5311 49.3832 174.2540 216.5475 187.4344 178.9366 54.7486 79.6473 28.7558 62.6414 128.5252 62.9064 233.7907 207.6549 61.5077 32.8540 
73.6514 127.0510 271.5607 296.3057 7.6662 183.7233 44.1265 119.6797 54.0406 123.8032 237.8275 58.9527 264.3426 36.7528 76.2554 143.8820 243.0702 27.2470 31.7068 45.5568 120.2283 76.6886 274.8217 93.7188 339.5711 181.3630 263.1298 57.4197 63.1371 101.5592 91.2399 282.4653 156.0329 19.9164 184.5659 289.3459 89.6364 177.3006 124.2724 62.9588 41.6461 52.1426 77.2070 82.1429 102.4946 52.1096 85.4642 150.8296 121.4890 57.7859 106.7233 149.2580 170.1360 325.2361 173.9934 162.9536 10.0291 55.3390 64.6893 125.9006 203.3281 73.4710 68.1622 155.3041 141.2681 195.3363 373.3672 135.8318 36.7296 28.7698 277.1206 111.3968 84.9197 86.0382 52.2127 83.3604 39.3318 92.9056 62.9092 156.6236 180.3499 333.0758 51.7972 154.9925 52.4258 34.3680 271.4741 214.5286 215.4215 24.0717 150.3135 49.0981 45.8844 48.2631 235.7586 114.5447 287.3852 148.5135 48.4461 64.1236 
153.8468 131.7046 303.1873 229.6146 50.9909 47.6798 42.0062 120.6474 59.1031 187.9245 65.7212 17.9752 300.6160 79.5685 96.1846 111.6149 227.3729 96.8107 48.5315 62.5674 120.7705 17.7604 47.5262 43.1314 243.0560 213.3701 120.4667 18.8935 65.9614 215.3641 172.9921 103.7139 188.5019 29.5427 32.1644 125.5154 127.8736 125.4195 231.8916 61.3619 44.1325 42.9328 54.5971 55.2382 115.6461 42.0629 72.6300 221.9475 121.8089 35.6382 154.6443 227.5670 101.6580 244.2438 211.5145 202.1468 57.2519 129.9807 155.6777 45.7474 163.3225 55.6264 25.7575 246.6378 186.7063 287.9453 222.3769 135.9010 41.4367 21.3552 296.8645 68.1639 75.7754 93.9897 243.5302 59.6884 66.0241 63.5560 33.6455 83.9707 141.2233 210.3470 45.5044 91.5735 97.5057 59.5221 203.6447 256.8971 222.4408 202.9387 76.5622 90.7457 40.0569 78.7443 166.0594 86.5157 275.5721 245.4661 73.8656 51.0928 
185.8038 127.3439 297.8442 212.3052 57.2683 20.9160 41.1026 158.2452 60.3906 203.1567 74.0833 22.6809 295.6557 97.2880 103.0436 100.8753 220.0118 115.9377 53.3846 65.8078 117.6463 30.5588 14.8481 34.9547 214.8302 219.2130 91.7213 10.9693 64.0739 231.5526 182.3283 79.2404 207.4110 32.6041 47.8464 102.2252 130.5203 110.0483 246.7135 59.6584 43.9578 39.5136 57.4765 56.3536 124.5498 46.7581 67.7576 231.2634 117.8472 49.4355 157.8602 233.1738 143.1620 222.2246 211.6101 204.2444 65.5481 139.5464 180.0103 51.2655 159.1912 50.1021 39.0323 262.4774 199.7833 293.9657 184.3603 133.1951 52.5449 22.7379 289.6052 68.5134 70.9655 91.7334 273.2352 77.7652 78.8582 56.4911 26.7818 93.1675 129.4207 180.0618 42.5163 99.7777 103.1026 72.8482 181.8841 255.0104 214.9175 235.9084 108.5983 113.0201 39.9491 84.2365 149.3410 81.8700 261.9398 254.9947 76.2883 59.2328 
99.3003 86.8036 191.1283 130.2289 36.2640 77.2313 20.7518 92.1957 25.3631 85.0116 66.0099 15.8525 195.4619 56.3651 37.6381 79.8420 120.2816 70.6586 21.2276 29.1803 67.8319 30.0072 116.2886 29.7712 177.0580 96.8774 100.3862 24.0003 41.3937 126.2179 108.7631 88.5731 65.8986 12.5589 66.0221 86.3373 79.0580 97.3954 132.3805 33.3163 22.0893 29.0546 6.4320 9.9694 38.7067 6.6121 45.4672 117.7739 73.2548 28.6056 98.3535 152.9060 87.6602 149.7890 125.8991 112.2266 38.1254 83.1711 88.2243 26.8230 64.1431 38.4010 27.4409 123.4907 77.1473 190.4956 179.8957 71.6219 26.7255 2.5807 186.7490 14.0113 51.6848 61.9907 160.2376 34.8963 36.6418 39.6232 28.1949 13.7996 88.3418 149.8974 30.5367 6.5156 58.1455 38.4075 154.0528 164.6088 146.6437 144.6123 64.1005 68.7828 14.8083 39.3039 99.6211 39.3338 188.6931 153.3103 44.0294 11.7555 
134.0321 91.2141 207.8112 125.2682 44.2994 51.6763 23.5317 119.6921 33.4166 122.1079 41.1569 12.5733 211.4545 73.4352 57.3249 74.4810 131.1010 89.6624 31.8567 39.4479 74.3446 27.9237 81.1672 16.6518 158.7975 126.4773 65.8804 15.9092 44.2154 159.7537 130.6414 42.5544 112.3146 19.2315 50.0100 42.1514 91.5542 87.0440 167.1152 36.5785 26.0809 27.9716 19.7060 17.5654 64.9620 20.1559 44.9827 148.5109 78.2630 36.2275 112.9074 173.4073 108.4328 139.3356 143.0136 132.2820 48.7029 101.4087 122.6630 17.4386 73.8425 35.4819 30.1546 164.9592 113.9842 216.0744 146.8745 80.5327 36.9682 8.3943 200.8305 17.5890 51.3224 66.0872 202.0803 50.0248 52.8659 34.5685 21.5541 27.7908 83.9355 124.3382 30.2293 29.9824 71.5529 52.2729 141.3565 181.2010 153.9077 181.5421 78.4315 87.8549 19.0073 52.9945 88.9945 39.7825 191.9075 181.2334 52.4832 28.1608 
273.3870 52.9062 107.8738 242.3787 50.2406 242.2932 35.5923 324.0123 54.7056 191.4597 365.8425 95.8396 87.4291 147.9560 109.1554 100.3257 180.3030 156.7976 57.0535 52.7797 76.3930 136.2484 392.0973 108.9347 261.8994 178.8493 291.5343 70.9273 29.2999 147.6370 79.4047 358.3674 264.2083 36.3423 296.7888 350.2955 38.0243 136.3398 147.2323 43.5894 32.3534 34.2705 109.8005 109.6232 152.7880 85.2212 57.3094 138.1195 67.1513 127.3505 37.8696 41.2102 376.2619 259.9782 80.9835 101.4337 68.0221 77.8764 216.9843 194.7722 210.0915 53.9626 131.6304 197.9153 199.2996 51.2246 340.0920 97.3694 99.2810 41.8818 121.1850 148.1035 48.0491 30.5222 242.0483 180.7533 117.0416 81.2296 62.2367 244.8457 135.2087 297.3961 30.6620 237.2216 52.6605 115.1240 194.7830 66.9972 90.6283 267.8351 309.5625 184.7810 49.0630 65.8649 204.4627 111.0921 137.9869 89.0962 29.7191 115.9922 
265.6707 13.4850 64.8374 114.6123 59.0410 174.9163 20.9428 294.8229 42.1753 182.5068 278.9121 74.7662 63.7505 144.4160 95.7791 36.4765 93.3517 159.1711 53.7901 48.9739 38.1631 110.5168 294.3285 70.8660 113.7578 146.1652 184.9467 49.2747 10.7079 179.0411 118.2107 247.5585 231.0477 33.8600 231.8543 234.1780 59.0998 62.4260 176.7920 22.4468 21.8077 10.2899 82.7758 79.6391 129.0585 68.7036 18.8003 144.6156 25.5449 110.1836 71.3749 113.5303 325.9583 115.7125 73.7038 90.5058 73.9398 105.9662 217.1417 148.5917 134.7623 20.9682 109.5669 201.1726 178.6157 134.9470 185.6070 55.5643 90.5212 32.0828 52.9919 106.2881 8.2598 15.2151 277.2775 155.8826 110.8891 40.5475 36.5089 188.6685 54.2699 153.8044 6.4228 181.9231 69.2288 109.7623 80.0800 70.2891 21.7844 286.5466 262.6448 178.3059 33.5307 67.0510 101.4213 65.3449 4.3536 142.8559 40.4845 96.0827 
179.9744 73.7016 174.7787 70.3471 51.2655 66.7308 18.5190 177.1638 32.4719 140.2656 105.9257 30.4866 180.0965 98.3301 66.5525 49.0240 98.1100 115.1308 38.6116 41.6271 58.5304 51.6909 121.2851 11.2437 96.7061 124.0872 40.6646 17.3118 35.6431 172.9336 134.1647 63.5909 144.7782 23.6783 98.3079 44.9365 86.5119 57.0473 176.8186 28.2734 22.4018 18.7809 33.4103 28.3963 80.0276 33.1557 30.0276 149.5158 61.0806 59.5342 106.9349 166.6349 176.8747 75.8176 126.5679 120.4241 58.9066 108.5234 156.4684 55.4917 58.8121 21.8418 54.1914 177.8593 130.0340 205.4370 84.9333 64.4113 54.6078 13.7523 164.6462 33.7958 37.4977 55.1450 235.8147 83.4713 72.5066 15.1743 12.2191 73.9228 49.9295 58.7595 21.5896 71.4248 74.2660 71.9650 95.3236 158.3653 124.0498 222.8795 135.5839 119.1694 17.4301 57.9863 40.6432 24.2981 148.7629 179.6046 51.2043 48.0784 
193.2812 34.8402 80.0461 38.9267 47.3908 127.1928 5.7612 212.6855 20.7908 117.4067 188.4668 50.5510 91.3136 106.7785 57.2974 37.1611 15.2026 120.4580 35.0054 29.9776 13.9339 78.0982 214.0152 44.6048 95.3899 77.5991 124.6566 35.6897 14.2596 135.7240 98.3706 163.6760 142.9907 21.9295 162.6902 148.2418 52.5472 59.0270 131.8348 5.3981 9.0058 10.6181 47.5077 44.3451 76.0055 41.8551 10.6600 97.9508 18.2420 77.7693 67.0059 113.1203 231.3566 54.6179 61.3475 60.1788 56.4967 86.2792 155.6117 97.5633 56.0121 16.9112 76.9821 133.7946 108.3332 134.7352 141.7425 16.9171 64.2476 18.5500 69.7066 60.2961 19.3185 27.6915 215.3217 107.4544 78.1472 21.6206 26.4328 118.1104 27.4298 102.8086 10.5109 111.3240 54.1933 79.2721 84.4279 82.9495 58.4472 221.0470 184.0145 132.4198 14.7428 44.8412 49.0849 25.4368 76.8893 122.2748 32.6717 61.2025 
103.5304 66.8524 136.2128 118.0740 30.0395 118.0483 13.0862 124.5583 8.2976 32.7957 140.5105 35.5021 142.8099 60.5058 7.8465 75.6517 83.2014 70.4896 10.2980 9.5807 45.8446 55.1003 185.2800 46.0326 177.6708 32.6443 140.0403 35.2940 30.3916 76.7159 71.0152 151.3183 35.2511 6.3600 122.9305 143.3514 50.8169 99.1022 75.1705 22.4394 11.9187 26.0298 23.7904 25.7784 12.0361 17.5414 38.5872 56.3851 53.0822 47.1814 65.6741 109.0365 142.4861 141.9452 80.2515 63.0912 32.0804 56.8407 74.4204 68.4781 53.7025 36.7379 50.4631 53.1815 18.6097 133.6726 204.7607 45.1976 35.2410 8.5291 135.5608 39.3082 44.1235 46.6752 125.3570 60.5092 38.1281 41.3717 34.4763 70.8160 80.6131 166.0280 26.1073 63.4922 35.1665 42.6002 150.7939 116.1349 113.1743 131.1381 114.2824 77.5683 9.5082 17.2714 101.1022 37.0995 155.2742 98.7424 26.4747 28.1488 
140.8018 88.5441 202.5992 116.5560 45.3305 51.7911 22.5651 128.3329 32.8608 123.9532 49.9372 15.1975 206.5863 77.1473 58.0591 70.7058 125.3278 93.4677 32.6409 39.4760 71.6813 31.3935 84.6314 13.7289 149.5450 124.8958 59.0163 15.4008 42.8746 161.3459 130.9789 38.6016 115.8585 19.7523 56.5104 33.8126 90.6436 82.5323 168.0879 35.1459 25.3314 26.6012 20.5733 17.5360 66.2383 21.6317 42.6999 147.9834 75.5235 39.7401 111.8692 172.2887 118.7578 129.6891 140.2095 129.9872 50.1937 102.3496 127.4504 23.0872 69.3270 33.4557 33.7644 165.9970 115.2582 214.3163 136.9609 77.6251 39.5904 8.8013 195.1558 17.3267 49.2580 64.4104 206.9505 55.0058 55.6965 31.6621 19.9035 33.9736 78.7843 114.4115 28.9353 34.8604 71.8013 55.1824 134.5030 177.5870 149.3578 187.6853 87.0483 92.5557 18.2577 53.4582 81.6437 36.5659 185.4515 180.7087 52.1713 30.7949 
264.1925 66.2343 175.4726 91.0743 66.3737 111.5437 26.1132 271.5283 49.7527 207.6991 207.3688 57.7748 176.4997 142.4365 104.7180 20.4249 125.3355 161.3246 58.5760 59.8110 66.9412 87.8260 201.9324 41.1872 20.5561 181.1355 93.5238 29.0995 34.5043 225.3419 162.9884 155.5975 236.8642 36.3673 174.4009 143.5772 98.7991 11.2700 229.6090 34.2244 30.1953 11.4501 71.2496 66.2490 133.3938 62.2354 25.0085 196.6774 61.8733 96.3856 119.9289 183.0017 284.4107 73.7396 141.7405 146.6612 80.1539 135.4830 227.4526 113.4364 122.5191 9.7451 90.9398 247.6939 199.7759 225.1816 44.7058 81.6107 84.7115 28.1974 161.5127 84.5862 26.4442 51.7246 313.0739 138.4292 109.9456 19.3507 13.3104 153.4912 41.2199 42.8365 15.3026 150.3180 93.2948 107.2554 30.8389 162.4950 111.0510 302.9200 224.7057 172.8727 32.9170 81.2849 56.3721 53.9527 116.8451 212.3667 61.5083 86.6617 
131.7318 117.9985 269.5499 196.3305 46.1590 46.0304 35.5273 100.7729 49.1470 157.0815 30.0203 8.0226 269.1103 69.3266 78.8165 100.5236 194.3690 86.1201 40.1884 52.7309 104.6614 8.4929 49.6258 34.5815 218.4480 179.0845 103.4959 17.5493 58.4947 188.6002 153.9784 79.5702 151.2198 24.3330 4.7088 97.5471 113.5263 114.5836 202.3067 52.7906 37.5466 38.3057 40.2196 40.9820 92.7910 31.1809 63.8075 191.3048 106.9521 27.1126 138.1038 205.6417 78.3515 211.6097 186.1455 175.6041 50.7360 115.9042 132.5485 24.9335 132.2212 49.5624 16.7386 210.1137 154.2026 259.3195 201.4491 116.4210 33.8851 15.8247 263.5667 49.7249 68.0362 84.3308 216.5767 44.3166 54.8723 54.7015 30.2472 55.2144 123.3324 185.1632 40.6725 62.8109 85.8420 50.4630 185.6318 229.4507 199.2816 181.8076 54.5478 79.6569 32.4012 67.0047 142.2190 71.0223 248.3984 218.3555 65.0982 37.4025 
199.0002 31.5311 40.7741 141.9173 40.5370 178.9901 16.7530 237.2958 26.6377 111.9753 258.7152 67.6810 44.4826 109.9165 62.3466 70.0864 85.4144 119.1019 35.1072 27.0583 31.6244 99.1686 290.6262 74.4030 183.1523 83.5978 204.9854 52.0724 13.3193 97.3838 57.5325 250.7947 162.1543 22.4907 215.1760 239.8522 15.3538 100.3025 89.0404 19.2567 13.3288 22.4964 69.0848 68.5989 90.0809 54.6371 33.7476 63.6487 29.7828 92.0088 22.4900 52.8307 273.2332 160.2748 8.5874 26.7263 51.3670 59.5869 152.3680 135.0419 118.2080 36.2230 95.1812 108.8005 112.6439 56.0745 244.7209 41.3988 71.3786 26.2947 52.1132 94.3318 32.1055 18.2301 184.3080 127.7176 82.3271 51.9528 44.5632 163.6348 82.9654 202.9626 19.8001 155.9881 33.2021 83.4859 143.0977 25.0799 54.1370 206.6742 222.7793 138.3958 26.8772 37.2915 127.8251 64.0823 95.4659 58.2001 13.6821 76.7507 
23.0253 121.1707 261.2410 257.8296 17.2904 145.8554 38.8962 58.5974 46.7371 105.5365 174.0710 41.9853 257.4346 7.4594 62.2054 129.7254 216.5647 4.3200 25.2911 40.7120 109.9442 53.2197 212.9741 75.4483 301.3854 160.1632 216.1676 46.3624 59.6907 109.8004 101.4704 222.3051 116.6766 15.5102 134.2751 230.0568 91.3463 158.3371 128.8949 56.8202 37.4262 47.2550 57.7294 62.7846 79.7903 36.9134 77.0056 144.8209 112.7094 34.3093 110.3495 159.7871 101.3919 284.5199 168.2910 154.9538 13.6528 66.5296 41.0874 91.1608 168.6858 65.5261 44.7128 144.1664 117.6559 205.8184 322.6756 122.3921 17.5570 21.3621 263.7415 85.1035 78.5423 83.1885 79.5855 49.2375 18.8769 79.9305 53.3763 112.0093 159.6327 286.8505 47.5928 111.9064 56.1096 12.1858 244.8610 211.0037 205.2581 36.7752 93.7956 13.8460 37.9945 44.5549 202.9616 96.1585 270.7757 158.2200 49.4802 42.9104 
87.3752 84.3979 169.5337 200.9768 15.7719 161.6719 26.1044 132.6336 27.4593 42.3489 205.0752 51.3149 168.9655 51.2089 34.1910 105.7137 148.7128 52.8128 12.6030 17.6308 72.6474 72.3464 248.8039 73.3376 253.6376 86.4500 210.4624 49.2428 40.2582 23.0756 42.0881 230.7027 82.1986 8.5709 167.7975 228.3814 48.2694 135.9579 34.8485 38.0470 22.9203 37.0219 52.9178 56.6097 53.1400 35.7897 58.1779 58.7573 76.4545 57.2667 60.1395 92.6248 171.2015 227.4572 98.2811 84.1446 16.9148 24.9200 49.8963 104.9743 128.2758 53.3685 65.0734 46.2225 59.0230 118.2851 292.5364 79.7353 37.8356 19.4609 175.4143 79.4162 59.6543 56.4101 52.9047 76.9316 35.6487 66.7690 49.9622 121.4078 125.5141 250.7655 36.1642 115.9757 19.1201 38.9070 205.1787 132.6275 143.2747 82.1007 144.5355 68.9889 27.4673 13.3118 166.7709 75.4809 199.7978 74.0764 22.9036 47.4856 
130.3852 96.1067 218.8145 138.6321 44.1510 48.6773 25.6562 112.5407 35.9182 126.1967 27.8821 9.1610 221.7309 71.0856 60.0000 79.4499 142.5205 87.4427 32.6439 41.3375 79.7820 23.3239 72.5243 19.5150 170.1767 134.7288 71.7117 15.7035 46.8012 163.2653 133.9346 44.7161 115.8674 19.6877 39.8954 50.1490 95.1394 92.3077 171.8114 39.4894 28.0483 29.9305 22.0924 20.9558 68.2048 20.7393 48.5174 154.9314 83.4725 32.9179 117.0216 178.6091 98.3898 153.0285 150.4181 139.5183 48.3426 103.1527 121.7414 10.6298 84.1510 38.1644 26.0850 170.9764 119.0671 223.1407 156.9902 86.8914 35.1194 9.1924 212.1272 22.4818 54.4669 69.3798 202.1060 46.1169 51.6761 38.3885 23.0928 26.3422 91.3900 135.7873 32.1949 30.9607 73.5364 50.5541 149.8317 189.6538 162.2033 178.9225 69.8322 84.4699 21.2597 54.7934 99.0876 45.5393 202.4291 186.8999 54.4556 27.6705 
67.8984 117.4800 248.5661 274.8515 5.3430 178.1883 40.0682 117.3505 47.9615 104.0825 228.3254 56.5731 242.7189 35.9190 65.9613 135.4170 221.9171 27.9909 26.6026 39.1941 109.5992 74.7649 267.7543 88.8552 320.4698 159.8233 250.8225 55.4471 58.0136 82.2048 78.3786 269.6663 135.9154 16.8122 179.1589 274.5660 79.9645 168.1448 103.3568 57.3865 37.4425 48.7839 70.8873 75.6954 89.9362 47.4849 79.3863 130.1057 111.4359 56.1217 95.6559 135.0994 165.9712 303.3103 156.8851 145.2446 4.9812 45.7095 51.6615 119.8838 185.8834 69.0001 66.2854 130.6282 121.4463 176.5423 355.2507 123.2696 35.0464 26.3227 254.2954 103.3109 79.3035 79.3480 29.4761 79.3808 34.9903 87.0063 59.9727 146.6495 168.1006 314.5489 48.3228 144.2140 44.2923 32.2284 256.8025 195.8502 199.2385 21.4776 145.6646 49.5706 41.5851 40.3130 220.1818 105.5612 267.8367 130.2654 42.4833 58.8596 
153.6160 44.7746 87.2693 77.8474 38.1425 128.5305 3.7064 176.7068 7.4287 73.3580 173.6824 45.5021 98.1769 86.4417 34.1074 57.0505 32.6796 97.6983 23.1935 16.1040 19.8777 70.2513 209.5612 47.2264 139.7454 29.8245 138.0411 37.1520 18.5384 96.7815 74.6881 165.1469 95.8035 14.6514 150.5703 152.2822 41.3304 80.7815 90.7014 8.7082 1.9654 18.3190 37.3245 36.1288 48.0060 31.7737 24.5112 57.8842 28.8801 65.9017 54.8750 97.1187 197.0080 99.9628 50.4262 37.2464 44.3551 66.0089 117.7160 87.7925 45.1293 27.3216 67.2896 81.5610 63.7421 115.3849 179.2858 14.0688 52.2245 14.2539 84.1523 51.5602 30.6651 32.0659 167.5681 88.8989 60.6335 32.1753 31.6380 100.1327 54.9392 138.8018 17.8194 92.5589 38.8454 63.3806 119.3011 81.1950 75.7260 177.6922 157.5562 108.7379 9.1956 27.8984 76.1694 28.0131 108.5336 93.5715 23.5369 47.7796 
252.5422 35.3227 105.4223 69.2908 60.0931 141.2625 18.4976 271.4163 39.8939 178.9902 233.3661 63.4663 109.1098 137.2631 91.0153 12.6160 80.8108 153.6301 51.9023 49.0225 39.8294 95.7708 243.6217 53.1021 53.5717 143.3008 135.4992 38.7755 18.6284 189.1101 132.0980 193.8647 215.1473 32.4520 196.5959 179.2875 72.7677 34.9561 188.6731 21.2246 21.4813 0.5315 70.4319 66.2777 119.3467 60.5642 8.4619 154.5641 32.4646 98.9814 88.9975 140.4108 292.8781 59.2576 95.0000 103.8094 73.4737 114.1659 210.1735 124.6609 108.4042 7.3082 96.3804 205.3358 171.8641 169.6318 119.3444 53.5596 83.5797 27.5885 91.1532 87.2398 7.6933 30.4376 281.0394 140.1414 104.6183 23.4644 25.0598 160.3011 23.7622 91.3766 3.3560 154.6530 75.7459 103.4599 41.1031 106.0003 58.7169 282.3321 233.5689 168.4689 28.4384 68.0601 59.3529 48.6564 53.1400 165.8322 46.9256 85.4116 
91.0974 132.4741 283.8574 314.9457 7.8746 195.7421 47.2082 137.3986 58.6699 138.5897 258.3069 64.3611 275.1319 45.4428 84.8721 150.8382 258.8121 36.3626 36.0353 49.8734 127.3666 83.6899 293.7945 100.3695 356.8472 196.6925 280.0701 61.0541 66.1488 109.8678 94.9844 303.1187 176.0625 22.6707 199.9567 310.5589 93.5423 185.7083 133.8297 66.8954 44.5693 54.7330 84.9772 89.8931 114.3237 58.1179 90.0967 162.2805 127.9329 64.7756 110.7331 152.8221 190.3595 344.5252 182.8985 172.9041 14.2557 57.6802 79.9727 137.4089 219.6663 77.2771 75.1703 170.5855 157.0559 200.9381 393.4158 144.6601 42.6530 31.7547 290.0649 121.5936 88.7964 89.5267 62.3724 94.1199 47.2285 98.6015 66.5028 172.4131 190.6004 352.2425 54.2660 170.7488 55.5725 41.5389 283.9965 223.3419 224.6436 41.6834 167.3076 59.0674 49.7824 53.2745 250.4588 123.0187 299.4816 154.6064 50.9567 72.0038 
91.3753 73.8036 146.6261 162.5886 22.1597 143.4864 19.5586 127.4104 17.3889 11.4724 177.6496 44.5289 149.6819 54.1832 16.8000 91.4539 115.4882 59.7829 6.5775 8.1190 57.8308 64.9680 222.4230 61.7219 218.6874 53.0281 180.4421 43.3937 34.3107 40.0510 49.6098 197.2003 51.8213 4.8811 148.8692 192.3186 44.5822 119.0409 39.9528 29.7791 16.7272 31.6701 40.1849 43.3243 31.7628 27.2331 48.5475 41.1076 63.3006 52.4576 57.3904 93.9757 157.6419 187.9565 82.7543 65.9140 23.2948 37.0432 55.6552 89.3158 95.2764 45.5778 58.6195 18.1447 25.6425 116.9702 253.8869 61.1417 35.8666 14.6322 150.3270 62.1989 51.6784 49.9066 84.8319 68.7480 34.6662 55.3657 43.2541 99.2182 104.3667 213.1465 31.0672 92.9114 22.0892 39.2912 179.6983 118.0024 125.2109 102.9173 130.6510 71.7306 19.4997 3.9432 137.1425 58.3795 175.3699 76.0892 21.1092 38.0403 
74.0778 98.5743 203.1844 233.5256 9.5221 169.3136 32.2019 123.8092 36.3248 67.5252 214.9642 53.4701 200.1053 42.8026 47.2325 118.8409 180.7132 40.5028 17.7539 26.9068 88.7222 73.2629 257.6453 80.2252 283.3407 118.2092 228.5966 52.0900 47.8966 44.7208 54.5186 248.0176 102.4060 11.5434 172.7044 248.8143 61.1207 150.3012 62.4105 46.4830 29.2389 42.1951 60.3214 64.6367 67.9313 40.2892 67.4887 89.2704 91.6234 56.1817 74.2597 108.4730 167.3604 260.9679 123.1437 110.3170 8.9718 29.2060 41.7662 111.1706 153.3055 60.2854 65.2793 82.5311 84.8698 140.7177 320.7283 98.7099 35.6366 22.2595 209.2234 89.5248 68.2283 66.1485 19.5398 76.7925 32.9147 75.7386 54.4756 131.5726 144.3001 279.2247 41.4811 127.3952 28.6476 34.2961 228.0720 159.1118 167.2708 53.7753 143.8508 59.0458 33.5657 24.8826 190.3995 88.6484 229.2069 95.4453 30.8473 51.5077 
290.2287 40.5642 126.1654 112.9215 67.3653 161.1847 26.0614 311.7145 51.2216 215.3193 274.0655 74.4790 124.0444 156.7801 111.4350 16.8309 119.4406 174.3261 62.0822 60.0189 56.6456 110.4754 277.7189 65.0668 68.9065 181.4877 162.2261 44.4085 23.6600 218.7805 150.1900 231.0762 260.4602 38.8444 227.4019 218.1957 83.9234 35.2841 220.1808 30.7704 28.7011 6.7240 87.2425 82.9967 146.5139 73.5730 19.9695 186.2789 45.9117 114.3995 100.9451 154.4487 337.7826 101.8765 115.4465 128.8802 83.5230 129.3206 243.5223 147.9611 146.1796 13.1518 111.4744 246.1868 209.8542 187.9721 138.7408 75.1103 96.6077 34.0738 112.5129 108.8575 10.0914 34.1146 318.8815 163.4088 121.5219 34.6055 29.4542 193.3059 47.6036 119.3474 6.9147 187.8780 87.5183 119.0899 36.4976 121.4570 67.5615 319.1978 270.5601 191.9297 37.5577 81.3706 89.9615 68.0312 54.5427 189.1866 54.7315 102.3050 
278.2805 48.2475 139.7423 95.1089 66.4952 142.7154 24.7841 294.7983 49.2004 208.8826 247.7875 67.8273 139.7812 150.3555 106.8570 5.3930 114.1562 168.3151 59.8510 58.6759 57.0681 101.5754 249.2765 55.6614 38.3060 176.3968 136.2323 38.7404 26.4223 218.2827 152.9555 201.8867 247.6430 37.3501 206.8375 188.7798 87.8097 21.0005 220.3237 30.1808 28.0957 5.5902 79.9060 75.3365 139.0073 68.3533 18.2780 186.2253 48.6991 106.9976 106.2322 163.0510 315.9568 79.8813 121.6337 131.5885 81.5832 130.1648 235.1608 134.0567 132.4145 7.5396 103.2436 242.3265 202.1797 199.0578 104.6720 73.5936 91.4729 31.3502 125.5052 98.1055 14.2213 39.5186 313.9099 152.8981 116.1186 26.8293 23.5329 176.4578 37.5412 88.3612 8.3681 171.6601 88.3728 113.7760 15.8817 133.4541 80.5531 310.8630 251.8780 183.6221 34.6777 79.9404 71.3865 59.9822 74.2500 194.8929 56.2205 95.3204 
251.1423 27.0450 47.8134 177.8213 49.8557 208.0447 25.3826 293.3760 42.2789 164.3481 314.4456 82.7881 29.6326 136.8527 91.2305 74.3184 124.6377 147.3770 49.5697 43.3497 49.0924 119.7718 340.0480 89.4689 199.8719 138.6379 240.0337 60.2702 15.4432 138.8471 80.2204 300.2801 225.2880 31.5379 258.3025 289.6317 30.8432 106.3211 134.5615 29.2113 22.8996 24.2576 91.0589 89.9958 127.7085 72.1838 39.4611 113.3540 40.0784 113.4726 34.3696 56.3205 335.8361 191.8999 46.8145 69.6819 64.9256 78.7238 198.7096 166.5237 162.3378 39.9650 116.2236 169.4476 166.9133 62.0355 272.9592 66.2679 89.4752 34.8406 60.0608 121.8753 32.1664 12.6013 234.6159 159.9366 105.8159 61.9879 50.6361 207.6645 97.8227 232.8811 20.6674 200.0470 49.6568 105.1503 148.9401 22.4235 46.8683 256.2263 274.2298 170.8189 38.1537 56.8904 154.7374 84.8624 85.6083 87.4618 25.5290 99.7801 
112.5697 111.7771 252.7916 184.6860 42.0155 56.1690 32.4224 82.9532 43.5545 136.4123 26.1247 3.5661 253.3004 59.9707 67.7059 97.7815 179.2982 76.1348 34.4146 46.5738 97.0217 6.4900 69.6528 34.2036 213.9847 159.2821 106.2396 19.9320 54.9988 169.7663 141.0964 82.6207 126.2938 20.7225 18.3185 96.2755 104.9667 113.3481 182.2645 48.7741 34.1231 36.8500 32.3961 33.9417 78.2897 24.2835 60.6007 172.2091 100.1455 20.2014 128.1673 192.0551 59.3578 201.6437 172.3828 160.7307 45.2120 105.7208 114.0668 16.7297 118.0386 48.0278 10.6476 186.1304 133.2976 241.9448 202.5387 106.9498 27.4591 12.6903 247.5986 41.3320 65.2514 79.6917 194.5995 32.1692 45.8072 52.4916 30.7823 39.2471 117.6138 182.0386 38.9487 46.8642 77.9893 42.6149 182.3414 214.9910 188.8174 162.7528 37.6330 69.1022 28.5666 59.1910 135.5059 64.8314 237.4958 200.9568 59.6620 28.0469 
58.9414 117.6147 249.4343 270.7515 7.3045 172.5911 39.5914 107.4270 47.2383 101.9093 218.7788 54.0087 244.0642 31.0504 64.1797 134.0711 219.6518 22.7830 25.6710 38.8230 108.9935 71.0936 258.3770 86.3601 316.3928 158.0240 244.4560 53.8540 58.0150 85.0395 81.4372 261.1218 130.2024 16.1584 171.4443 266.3463 81.2949 166.1112 105.7885 56.9347 37.1363 48.3624 68.1583 73.0329 86.8497 45.2678 78.6605 130.8247 111.0711 52.3885 97.5000 138.5561 154.9911 298.9684 157.7488 145.6476 4.0096 48.5735 46.1161 114.7300 181.7347 68.2012 62.5978 130.3247 118.5881 180.5026 349.0138 122.2852 31.9565 25.2797 254.6336 99.6719 78.9042 79.6539 35.0999 74.0293 31.4100 85.5051 58.7411 140.1205 166.0252 309.0161 48.0284 137.9728 45.6565 28.5047 254.1653 197.3911 199.4295 12.3105 136.7528 43.6870 40.6461 40.1538 216.4376 103.3918 267.3956 133.8376 43.2570 55.6698 
172.3805 71.1075 135.3735 224.7925 26.9433 205.7561 29.6503 223.0044 37.6734 106.1039 287.6056 73.8900 128.5812 94.9803 66.7860 107.8140 160.3878 98.0769 32.7483 29.9174 71.7662 104.4000 325.0011 92.9205 268.7183 117.4262 257.3186 61.4185 34.7575 53.2238 10.7895 299.6581 166.3852 21.2558 233.8187 294.4463 24.8874 142.5846 52.3907 39.4474 25.3927 37.1223 80.7150 82.7418 98.3807 59.6820 59.2006 68.7592 70.9905 91.2171 27.5024 36.8782 270.5065 249.6285 75.7999 74.4488 37.8129 23.5200 126.1697 150.6660 166.9201 55.8080 97.9490 98.5566 118.6605 50.8385 328.1199 84.1896 66.8770 30.3514 147.2226 113.7712 56.4435 44.8030 123.1371 127.2131 73.6063 75.8853 57.9338 183.0173 133.8314 283.1502 34.8385 176.1814 14.1148 74.1194 210.0253 94.6127 121.1865 158.0457 225.2143 121.5954 37.2343 32.7972 189.7622 93.2131 178.2000 18.6765 12.1876 80.7166 
5.1306 110.6474 237.5765 225.4305 19.8302 129.9120 33.5083 43.9905 38.9600 83.9909 146.3035 34.7433 236.0778 9.2100 48.6105 117.3387 188.7096 18.6919 19.0415 33.9419 97.0658 45.2196 189.3730 65.1454 271.4391 134.6164 190.1208 41.2861 53.9876 100.4643 95.6544 191.8817 84.8972 11.4609 115.3093 197.6161 83.9994 143.8137 116.0960 49.7961 32.3246 42.5776 45.1355 50.1918 60.6969 27.2237 68.6740 126.5975 100.8194 26.6935 102.4578 151.5236 80.4848 250.9893 151.7599 137.3557 15.7232 64.2539 27.5649 74.8188 140.9976 58.8260 36.7539 121.9577 93.0798 193.6625 289.9084 106.7412 10.5119 16.5140 239.0669 68.7225 71.3256 76.2914 84.1786 35.1779 6.4556 70.2473 47.6734 87.9415 141.5886 254.8557 43.0421 87.3294 51.6295 3.3190 222.7578 193.5820 187.3845 54.3980 74.3045 16.8182 31.3994 37.4533 177.8417 81.7500 247.5641 147.3813 45.1343 30.4722 
152.0098 92.2808 213.3118 123.1086 48.0300 42.6432 24.7538 137.4003 36.9270 138.0184 48.4962 15.8280 216.5826 82.6048 65.8160 71.2476 135.5321 99.5381 36.4888 43.7746 76.7514 31.7350 72.8961 10.7158 148.7955 139.0546 49.2307 12.4904 45.0614 173.9579 139.6226 22.1418 132.6542 22.1501 53.8828 21.9191 96.3773 81.3296 181.6205 37.8468 27.7432 27.2032 26.8607 23.8056 76.4230 26.2480 44.4066 161.1346 79.8374 42.6034 118.4868 181.2660 126.6018 134.0792 149.4039 140.1732 53.7026 109.1399 138.8967 25.6676 80.4351 33.8118 35.4843 182.4188 129.7950 225.7987 130.0579 84.1292 42.9536 11.2112 205.2305 25.5232 50.6229 67.2729 221.1873 60.4513 60.9911 32.2397 18.2542 44.0076 81.4178 111.6517 29.7839 46.1601 77.0943 59.6558 133.9826 186.9333 155.6265 199.6845 93.1677 98.6191 21.2417 58.7858 84.2761 41.0622 191.3479 192.3969 55.8488 36.2998 
110.9169 71.3700 153.0816 101.5752 35.2335 94.7540 13.6637 118.3717 14.4575 63.9685 104.8259 26.7302 159.7903 63.6431 24.4931 69.9396 84.6868 76.3953 17.1777 20.0652 49.9239 44.8237 149.5472 33.3365 158.5082 60.2549 108.3238 28.2200 32.9973 106.7268 92.1997 111.2429 51.4452 10.2783 97.0117 102.3204 63.9337 89.3654 108.1398 23.8847 14.6941 24.5846 9.9320 10.5868 23.7977 11.3283 36.6976 87.9044 56.7444 41.3365 80.9914 130.4554 125.2090 123.1761 97.6002 83.0306 37.8306 73.0173 88.9831 48.8004 35.4524 33.2662 41.8635 93.1805 51.9139 160.6354 173.4963 49.9613 34.0412 3.6308 149.1644 19.3830 43.5483 51.0430 152.8152 52.5711 41.1096 34.0178 28.2967 45.3579 72.4839 138.1380 25.5351 37.7143 48.1292 44.3723 138.7497 133.7465 120.5865 148.4086 96.9728 79.5405 6.6515 30.0781 83.1939 26.9587 158.7712 127.1205 35.2091 21.5165 
99.7372 71.3936 149.6234 115.1376 31.6483 105.9481 14.1962 113.5430 12.0721 45.5891 119.4136 29.9857 155.9523 58.2419 14.4080 75.1047 88.6459 69.5698 12.2277 15.1414 50.2502 48.0492 165.4450 40.2894 173.2376 49.1924 126.0995 31.8194 32.8794 90.5132 81.7979 131.5624 32.1772 7.2471 106.9485 124.0976 58.6578 96.7331 91.3410 24.3957 14.0866 26.2067 15.7563 18.1279 10.8002 11.8533 39.2123 73.7777 57.2627 41.4751 74.7772 121.3847 125.8039 138.1826 92.0819 75.9986 33.3635 64.2763 75.5885 56.6965 47.6024 36.2040 43.8475 72.8219 33.1958 149.5633 193.5893 50.2229 31.9920 5.4226 147.5239 29.3057 45.3184 50.3772 134.0638 52.1394 36.1187 39.1676 32.0278 54.7663 79.7323 156.7014 26.7373 47.3871 41.7097 40.3232 148.8178 128.6538 120.7527 133.4986 99.3533 73.9406 8.5256 23.3286 96.0256 33.9438 162.0261 114.2609 31.4270 21.4200 
56.1867 116.3092 246.4492 266.6790 7.7048 170.4142 38.8991 104.8405 46.2015 98.6107 215.0846 53.0439 241.3973 29.9313 62.2852 132.5318 216.0987 22.0109 24.7222 37.8428 107.3474 69.9327 255.0577 85.0447 312.6528 154.5520 241.1104 53.1762 57.2982 83.2037 80.5220 257.1751 125.9397 15.5589 168.7913 262.1937 80.3112 164.2976 103.5962 56.0366 36.4689 47.7809 66.5836 71.4547 84.3053 44.0647 77.6184 128.1519 109.5678 51.2726 96.4617 137.5285 151.8165 294.7659 155.5938 143.2898 3.1648 48.0859 42.9567 112.6089 178.2215 67.3658 61.4477 126.8423 115.0890 178.9633 344.8656 120.2704 31.0092 24.6736 251.5292 97.6181 78.0113 78.7983 34.1521 72.1944 29.9646 84.2896 58.0136 137.0969 163.7669 304.9895 47.4637 134.9022 44.9189 27.3795 251.4182 195.1930 197.2124 12.0864 133.9728 42.5307 39.8020 39.0165 213.2843 101.5729 264.5366 132.2954 42.6418 54.1432 
113.8755 65.9377 138.2371 98.8833 34.0494 105.3379 11.4309 127.5623 9.5302 53.7776 123.5974 31.6117 145.6626 65.5512 18.9328 68.8422 74.1367 77.3265 15.3577 15.5513 43.7530 51.0593 167.1325 38.0932 158.9224 43.1067 119.5613 31.2028 29.9856 95.7704 83.2702 128.3787 48.6550 9.3200 111.2411 118.6830 56.7427 89.8835 95.0900 20.8014 11.7871 23.7694 17.0260 17.6130 19.8980 15.2830 34.8305 72.9812 51.1554 46.1649 72.6957 119.4456 139.4187 121.6329 85.4375 69.9899 36.8870 67.0810 87.7345 59.2559 34.3830 32.8643 47.6200 77.6102 40.4555 146.2643 180.6219 42.4239 36.6306 6.2268 135.2147 28.4403 41.4743 46.9090 146.2287 59.3945 42.4565 34.7800 30.0794 59.3359 70.5640 143.2192 24.3214 51.6956 42.7599 46.1532 137.9099 120.8620 111.4686 146.9359 109.7304 82.6543 5.1520 25.3153 84.3559 27.1980 149.6260 113.7569 30.8431 26.4006 
91.1325 74.1193 154.8021 125.8000 29.8130 108.9840 15.7493 106.6765 13.4799 39.0715 121.7523 30.2638 160.4583 53.8707 11.4420 79.1525 96.8397 64.6483 9.8932 14.5202 53.6709 47.7173 168.7423 42.9728 183.0925 52.0394 133.2473 32.9653 34.3206 85.2372 79.3247 138.1128 21.0495 5.7317 107.8608 131.9519 58.7895 101.5066 86.8618 26.3496 15.2599 27.7097 17.6269 20.8065 4.8346 11.3899 41.8531 72.4356 60.4583 39.6930 74.8032 120.7717 120.6409 149.2330 94.6528 78.1991 30.8325 61.3674 67.3244 57.9687 56.8200 38.4035 42.9172 67.8170 28.0223 149.3134 204.0025 54.3818 29.6243 5.9927 153.4653 32.7037 47.5389 51.9936 124.6902 49.3095 32.3007 42.3449 33.7615 56.1949 85.6346 167.0341 28.1514 49.2197 40.1595 36.9251 156.0726 131.7275 125.4124 124.2730 96.0071 68.9332 10.7008 21.4317 104.3002 38.7177 168.7388 112.4194 31.1474 19.9515 
164.8022 38.6037 66.4478 98.4504 37.7404 146.1316 7.6153 194.2540 12.3520 78.9871 202.4143 52.8974 77.5364 92.3163 40.4800 61.0167 45.0023 102.4781 25.5281 16.6779 18.0761 79.7497 237.4937 56.7860 154.1221 37.8517 161.7092 42.3987 15.2472 89.3254 64.2681 195.0608 113.0668 16.3110 172.2780 182.9774 30.3460 87.4010 80.9437 9.8955 3.5456 19.3872 47.7796 47.0616 59.3141 38.9032 26.6801 46.8931 25.1396 73.9442 42.0859 80.1958 220.5281 119.3459 30.6832 16.7141 45.1643 60.3138 124.7428 103.6641 70.6196 30.1052 76.2364 79.0747 73.4455 93.0411 202.3140 17.2443 57.6629 18.1649 66.9980 66.0994 30.4051 26.4900 166.5404 100.7371 66.1332 38.9012 36.2159 121.1022 63.4227 161.0430 17.9967 113.4655 33.5529 68.5966 127.0352 61.0456 65.5382 182.3418 178.0451 116.4917 15.2455 27.5134 93.6058 40.5577 101.4568 75.6823 17.7263 56.6909 
228.4007 92.3159 226.3605 123.0410 62.7444 56.1288 30.0538 220.4991 50.8851 198.7600 133.2804 39.0526 227.3557 122.4865 98.7972 54.8920 154.4198 141.8215 54.4056 60.0722 85.0149 61.3398 115.9200 19.5819 102.2652 187.4557 25.8481 12.2406 46.6565 226.0483 170.9872 76.7866 212.6462 33.4865 113.6164 72.4508 111.8774 53.1436 234.2113 42.6803 34.1607 23.1150 57.1208 52.4989 121.6567 50.9309 41.3814 206.7109 83.7243 74.5861 136.0497 205.5200 219.5828 118.7903 169.3508 167.2915 73.7738 137.1613 204.1980 76.0442 118.1101 26.1131 66.6842 247.4247 190.7514 255.5377 53.9305 98.0186 69.7026 22.9172 214.4441 64.0205 45.4694 68.9046 295.7642 108.7124 94.8149 26.5149 3.7890 112.5668 72.1092 64.6303 26.7541 113.0028 96.8076 91.4598 96.2964 201.7097 155.3688 274.5755 170.0728 146.7777 31.7803 80.4389 75.1800 54.1369 179.6428 230.0572 67.2726 69.8386 
286.0362 53.3767 152.3085 104.3135 68.5300 142.4468 26.8452 301.5470 52.2000 218.3908 251.4706 68.9807 151.4025 154.2716 111.8656 9.0160 125.1824 172.7586 62.3513 61.7927 62.8588 103.0604 249.8897 56.3269 37.3289 187.1191 135.9878 38.5233 29.2630 227.8296 159.9933 203.6702 257.7455 38.8857 209.2903 191.2282 93.0540 16.5952 230.7380 33.1575 30.2709 7.5579 82.7791 78.0945 145.1586 70.7052 21.6397 196.6685 54.3281 109.2523 112.3107 171.1724 322.4123 88.3034 130.9023 140.9603 84.1171 135.4647 242.8802 136.6062 140.1273 9.0297 105.0977 254.2968 211.8034 209.6156 99.8987 80.2263 93.7879 32.4928 138.0767 101.3783 17.3399 43.0742 324.3514 156.5678 119.5975 28.3115 22.9707 181.1372 43.0596 88.4652 10.3891 176.6627 92.5783 116.8607 7.7827 143.5673 89.2314 319.6749 256.9657 188.1034 36.6689 83.7727 76.1991 63.7046 84.2279 204.8531 59.3846 98.2739 
91.0895 115.3874 258.3483 201.3124 37.9002 73.1390 33.9403 56.9338 44.0844 129.0031 55.1188 10.6432 258.1288 48.0574 65.2692 105.5498 188.4902 63.4280 31.8978 45.3880 100.7737 9.0200 94.8610 42.7120 234.3670 159.5537 129.2236 25.1491 56.7576 160.0901 135.5324 111.0218 118.4480 19.1495 38.4281 123.5901 103.8976 123.8264 173.8789 50.9093 35.0372 39.4600 35.0306 37.9807 75.7506 23.7924 64.7116 168.3231 104.0490 10.1007 126.7045 188.9010 29.1846 220.7168 174.0413 161.5084 39.7507 99.7289 98.3216 29.6753 127.5901 52.1944 1.0733 178.3895 128.2548 238.8234 228.9299 111.0785 19.8003 13.3929 254.5598 48.1208 68.8812 81.6463 175.2191 19.9832 37.3679 58.6000 35.6277 46.8065 127.5568 205.2910 41.2505 53.2943 74.7729 33.6009 197.3310 217.5984 195.0274 140.9761 13.4186 54.1776 30.1897 56.4111 150.5330 71.2502 247.7856 195.6925 58.5109 25.4644 
177.8476 63.1866 149.0233 44.0192 49.2746 82.8010 13.7433 181.0615 26.7675 127.1438 123.9290 34.5675 156.0211 97.8048 59.5888 43.1759 72.4930 113.6987 35.6586 36.4504 46.0871 57.2581 145.1121 20.0843 88.2041 104.0538 63.2856 22.2855 29.8687 158.6933 122.4085 89.2356 134.3913 21.9438 112.9687 71.2497 76.4538 54.6348 160.2552 21.6558 17.7710 15.7204 32.6673 27.7391 72.5336 32.5000 23.4230 131.0547 49.5038 62.3125 95.2508 151.1080 185.5040 53.5603 107.9016 101.8372 56.8225 100.6047 150.8126 63.6908 41.2871 18.6101 58.4548 159.0564 116.2085 185.0225 94.1554 49.7481 55.2226 13.3301 138.9755 34.9564 31.9785 47.7374 224.9925 86.3193 71.2440 10.9567 15.4368 79.4444 37.4334 59.6926 18.1313 75.0284 67.3468 71.5575 88.1857 137.6372 106.2876 217.3294 143.6065 119.4888 13.4518 52.1593 25.7505 13.2077 128.6065 161.7413 45.3922 48.1779 
236.8123 74.1638 187.4342 85.1936 62.3132 84.8398 24.7905 237.7092 45.7529 190.2853 164.2383 46.5971 189.8685 127.8096 94.4533 34.3736 122.9298 146.4598 53.0627 55.6817 68.3661 72.6693 159.0452 27.0672 53.4208 168.8385 56.0000 21.1583 37.5286 214.3304 159.0415 110.8968 209.8506 32.8014 140.7205 98.7422 99.4616 31.2360 219.3646 34.2359 29.0521 15.4536 58.7626 53.7114 118.1233 52.6925 28.8472 188.4880 66.2164 82.5660 121.3266 185.6629 243.7641 73.6207 144.8483 145.3667 74.0285 130.3303 206.1643 90.2402 104.0660 15.2188 76.3677 231.9752 181.5236 229.1066 20.2236 80.3199 74.2553 23.4773 174.5058 67.1965 33.2654 56.7157 292.4312 118.5517 97.9090 14.9164 5.9160 124.5921 45.9741 17.0486 19.2097 122.4779 90.1316 95.5449 60.9552 171.3471 124.5762 278.7497 190.6483 154.5722 28.6178 75.8720 46.3063 44.8849 139.0917 210.0180 60.7219 73.6325 
104.6916 67.7265 131.9544 152.3261 24.4147 144.9615 17.3930 139.9062 14.5747 19.2102 182.8897 46.2080 135.9509 61.1132 17.5344 86.8362 103.7111 67.3602 9.5281 4.5723 51.3791 67.9578 226.6093 61.1783 209.1214 41.4427 178.3635 43.5280 31.0634 41.4763 46.7619 197.9285 59.6860 6.6417 153.8866 191.6227 39.2163 114.4162 36.6287 26.5191 14.2660 29.7695 40.9888 43.5164 33.7166 28.9069 45.1216 28.6162 57.0627 56.5270 51.4887 87.2965 169.6060 177.3157 71.8793 54.5434 26.8812 37.7442 67.9202 92.1508 89.6194 43.2358 62.0484 6.3517 26.2992 107.4489 246.8234 53.7911 39.8924 15.0234 135.7934 62.5129 48.2954 45.6456 96.8878 74.6668 40.3603 52.8539 42.3459 102.9449 98.0227 205.6220 29.0043 96.1624 20.2651 44.6440 171.8286 106.2738 114.9419 116.3041 139.6885 79.9330 18.1629 2.6854 130.3855 55.0860 163.1651 68.6631 18.0637 41.1034 
97.8001 72.0029 150.7751 117.5127 31.2424 106.5692 14.5394 111.9448 12.3540 44.0886 119.8002 30.0100 156.9575 57.2562 13.6601 76.0072 90.4648 68.4682 11.7063 14.9720 51.0079 47.9306 166.0812 40.8635 175.4288 49.7171 127.6413 32.0600 33.2005 89.3330 81.2454 132.9261 29.7026 6.9098 107.0559 125.7596 58.6823 97.7938 90.3268 24.8286 14.3411 26.5423 16.0801 18.6608 9.4032 11.6619 39.8018 73.4316 57.9737 41.0388 74.7802 121.2511 124.5415 140.6430 92.6432 76.4633 32.8024 63.6312 73.7507 56.8967 49.6519 36.6940 43.5955 71.6457 31.9102 149.5090 195.8837 51.1403 31.4434 5.5073 148.8468 29.9880 45.8149 50.7385 131.9905 51.4451 35.2569 39.8723 32.4071 54.9388 81.0481 158.9850 27.0533 47.6361 41.3601 39.5534 150.4335 129.3370 121.7944 131.4481 98.5031 72.8057 9.0091 22.8887 97.8630 35.0044 163.5286 113.8445 31.3597 21.0138 
120.7362 61.4615 126.9960 94.0055 34.3196 111.0908 9.5904 137.4563 6.3652 53.0542 135.3648 34.8342 135.0943 69.2423 19.2672 66.6341 64.9670 80.6598 15.9624 13.7726 38.7047 55.4460 177.4177 40.3102 155.5823 33.0248 124.3433 32.7114 27.5507 92.4025 79.3073 137.3217 55.5718 9.8379 120.4474 126.7802 52.4253 88.4031 90.1600 18.2235 9.6199 22.6994 21.6426 21.7660 23.5734 18.8743 32.7226 65.5284 46.4802 50.3921 67.7424 113.1148 151.7713 117.0932 77.0418 61.3987 37.7316 65.1254 91.9125 65.9106 33.4419 31.8168 52.0097 72.4671 39.6295 137.7512 181.3816 36.3618 39.7020 8.0455 124.2187 33.6656 39.3140 43.6857 147.4613 65.6507 45.6159 34.2654 30.6002 68.7015 67.3632 142.9220 23.0220 61.0552 40.4879 49.2655 134.6058 111.6952 103.9222 151.1367 120.1822 87.4520 4.5774 23.9681 82.5679 26.4995 141.2247 106.8214 28.4450 30.9774 
220.3149 47.6567 83.4729 202.0335 40.2400 211.6757 27.0794 267.3954 39.6740 138.6603 309.0630 80.5198 72.8477 120.5344 80.5601 91.4973 140.0109 127.8128 42.4674 36.6462 58.1339 115.3561 340.7345 93.0225 236.2403 126.0648 253.4234 62.1638 23.9384 101.2015 49.3164 306.6953 201.3398 27.2377 252.7961 298.2033 14.5379 125.5295 96.4445 33.3848 23.3013 30.7145 87.8948 88.2267 115.5849 67.7444 49.1562 87.3959 53.4890 105.7216 10.3934 19.4813 313.1514 221.9919 49.2033 62.9157 53.8172 54.9143 169.4620 162.8547 166.0148 48.1602 110.3808 135.8137 145.4428 12.8035 304.6935 72.8789 81.0188 33.3761 97.6008 120.4134 44.0857 27.4510 188.1955 148.3472 93.2332 69.6346 55.1617 200.5969 116.1783 261.2685 27.6355 193.0458 33.0529 93.1437 180.6168 47.3557 81.6769 216.3487 257.7036 151.8454 37.9693 45.7474 173.7921 89.7702 130.3583 45.3852 15.0657 92.9762 
184.5405 132.7226 309.5660 227.2187 57.2068 31.1448 43.2914 155.0920 62.9934 208.2854 80.2342 23.6839 306.6464 96.0792 106.3144 107.2579 231.9714 114.5701 54.5713 67.8763 123.3727 29.6555 27.3969 40.0402 230.2983 227.8439 105.7885 14.0273 66.8648 235.4957 185.7365 94.3915 213.2121 33.3322 48.8606 117.7900 134.2107 117.6697 251.8215 62.7109 45.9807 41.8749 60.7122 60.0707 128.8055 48.5309 71.7923 238.0318 123.4449 48.4853 162.0890 238.4803 139.8082 238.3312 219.3096 211.7161 65.4755 141.4134 180.7675 54.9061 169.5022 53.5013 38.1647 269.2424 205.8859 301.2097 201.7346 139.7993 52.0138 23.9101 301.7385 73.6067 74.6535 95.3032 274.0389 77.4837 78.9142 61.1952 29.8492 98.2766 138.1636 196.4789 44.8154 105.3090 105.2000 72.2624 193.4542 263.9264 224.0482 234.3207 106.7452 111.0464 42.2262 86.3056 161.3151 87.7818 273.9803 260.8105 78.3231 60.8581 
221.8690 55.4003 102.0216 220.1757 39.0388 219.8065 29.9838 271.3825 42.9485 143.5784 320.3663 83.2966 90.0402 121.1207 84.3793 99.1897 156.0877 127.5327 43.7173 38.8134 66.2934 118.6123 352.5302 97.9539 254.2047 136.7132 266.7330 64.7847 28.1140 99.7025 45.7328 320.8512 208.9688 28.0546 260.9615 313.3118 18.7961 134.3354 96.6454 37.6093 26.0542 33.6721 92.2122 92.8984 120.9782 70.5065 54.3601 93.5104 61.6102 108.0305 14.4062 7.6026 319.8211 241.2559 61.6065 73.4718 53.1607 51.7517 170.5410 169.0719 178.5950 52.2279 113.2513 141.0721 152.2620 4.5481 323.3622 82.0146 82.3263 34.9760 116.1255 126.6757 48.8776 32.7512 184.1223 151.9134 94.4779 74.9753 58.2960 208.7559 126.8961 279.1808 30.6210 201.3006 32.4174 94.0617 194.2758 62.3097 94.7876 213.9347 263.9698 152.7276 40.8050 47.2813 187.6035 96.8230 146.4140 42.9331 16.3063 96.1965 
92.5645 120.1361 269.3916 213.8327 38.3214 75.9647 36.1320 55.6146 47.1896 137.0691 63.8259 13.2132 268.4044 48.0009 70.1950 110.2208 199.8885 63.2456 34.0034 48.1584 106.2374 9.5647 97.5753 46.1246 245.1865 169.9761 137.1969 26.2743 59.3024 166.0885 140.0102 120.2976 128.7815 20.4722 41.6682 134.3184 107.9489 128.9226 181.0466 53.8350 37.1708 41.2944 39.8014 42.7951 82.4319 27.2215 68.0405 176.7980 109.1722 10.3088 131.3152 194.7171 27.7053 233.4707 181.9112 169.5910 40.3842 102.6043 101.9233 35.8516 138.3166 54.7098 3.4883 187.9757 137.3401 246.6456 239.5225 117.6122 20.3214 15.2070 265.7541 54.4042 71.8422 84.8857 178.7219 23.1662 38.9844 62.1615 37.3933 56.4350 134.5181 216.4101 43.1001 62.9205 77.5930 34.1621 205.3953 226.2479 203.0708 141.7207 16.7298 53.3153 32.7469 59.4383 159.9076 76.8013 257.7793 202.6651 60.8953 29.6543 
261.8371 55.2624 109.7369 241.8127 47.2806 239.4424 34.9363 312.9057 52.6938 181.4819 358.4614 93.7052 90.9939 141.8798 104.2995 102.2180 178.2864 149.9077 54.2589 50.0006 75.7552 133.0822 386.3487 107.7525 265.1749 171.3156 289.5436 70.2633 29.8861 136.1261 70.7803 353.6368 253.2690 34.6171 290.8029 345.8995 33.8250 138.4384 135.4980 43.1147 31.4571 34.9258 106.8347 106.9505 146.7101 82.5222 57.9372 128.9004 67.5962 123.5119 32.4475 31.0522 365.0339 260.6560 78.1421 96.6315 64.3787 70.9812 206.4703 190.5277 205.8571 54.6747 128.1744 185.8441 189.9571 39.6097 341.5828 95.7383 95.7040 40.6912 123.6403 144.7726 49.5216 32.1452 227.4287 175.0404 112.1333 81.2032 62.2211 238.6648 136.0624 298.1493 31.4382 231.0814 47.8126 110.4816 198.6264 67.6688 94.6207 254.5951 300.7350 177.5775 47.8245 61.8854 204.1836 109.5401 144.1937 77.9331 26.7613 112.2478 
238.9787 48.4870 130.5365 49.8132 59.4070 118.4995 18.1070 251.2431 38.5923 173.7884 200.6648 55.2205 135.1353 129.8911 86.7821 13.0221 82.1506 146.8853 49.7804 48.4765 45.1044 84.7863 208.4684 41.1653 27.6787 141.4473 103.0293 31.8108 24.4138 191.2973 137.6981 157.1922 201.5915 30.9829 171.0897 142.0586 79.7749 26.3181 192.2134 22.7909 21.9682 5.4002 61.6570 57.0202 111.5891 54.4259 11.8377 158.6422 41.3332 90.0090 97.9105 153.6005 266.3923 31.4552 107.9680 112.1789 71.5610 116.6324 201.3369 107.3868 93.1798 2.3923 86.2841 204.5529 165.2355 186.9581 81.1810 56.2436 77.5170 24.3583 116.7663 74.0422 17.1290 39.2123 277.0861 127.4874 98.5072 12.9004 17.9906 139.6287 14.1992 52.3120 9.0880 134.8621 78.1726 97.3432 37.3996 126.1609 81.0714 273.5456 210.7997 158.7997 25.4448 67.5193 34.5751 39.3080 84.4284 176.3712 50.0269 77.1312 
230.1840 57.0358 147.5369 49.1450 58.8967 103.6596 18.7919 238.0530 38.5185 171.4832 179.4417 49.8783 152.1395 125.0494 84.8038 21.1385 88.7445 142.3987 48.6529 48.5828 50.4723 77.5948 185.4479 33.4823 31.2008 142.5909 81.9984 27.2925 28.4281 193.0624 141.4105 133.4035 194.0812 30.1848 154.4043 118.1000 84.5064 27.4176 195.0610 25.0616 22.9537 9.1806 56.4990 51.6165 107.5497 50.7551 17.0255 162.4449 48.3665 84.1665 103.7754 161.9553 249.1049 31.6571 117.2975 118.9877 70.2941 118.2358 195.8049 96.2852 86.7260 7.0481 79.6952 205.2936 162.3424 198.0424 59.9982 60.5079 73.5941 22.4662 134.3202 66.1527 23.1268 44.8892 274.4313 119.3443 94.6304 7.4431 13.6029 126.6937 21.3317 27.7769 12.7849 122.6517 79.9001 93.3797 46.1865 139.4608 95.5887 267.6222 195.9853 152.4171 24.2265 67.5473 24.2707 35.4667 104.2669 183.3993 52.2047 72.0351 
163.2780 84.7730 197.6510 101.3913 49.3737 50.4924 22.0409 153.6231 34.7230 138.0647 72.1065 21.8292 201.8252 89.0102 65.4408 62.1422 119.7242 105.9269 37.1117 42.6271 69.1759 39.9602 91.1820 5.3641 127.1567 131.8521 38.2546 13.5238 41.2329 173.3022 137.3575 32.6063 136.0857 22.6147 72.1119 14.2858 92.3275 71.0769 179.3469 33.8310 25.4124 23.7828 28.1881 23.9189 76.8155 28.4486 38.5639 155.8919 72.1630 49.5083 113.7856 175.4092 147.1620 110.3655 139.9831 131.8149 55.8132 108.8665 145.7636 37.6766 69.2426 28.9169 43.1633 179.7800 128.7423 217.6063 109.2453 75.7584 47.6526 11.7881 188.7360 26.1850 45.3092 62.3753 227.1082 69.6833 65.5315 25.2792 15.0479 54.7391 68.6163 89.0419 26.4647 54.5207 75.8621 64.6166 117.9353 175.3505 142.8661 209.2034 110.4793 107.0334 19.1601 58.2075 66.4919 33.3047 174.1502 187.1291 53.9049 40.5560 
234.6165 16.9225 16.4329 143.3704 48.5913 188.3904 19.6833 272.0954 35.1112 147.3200 283.4189 74.7944 5.5783 128.4004 80.2393 62.4597 94.0588 139.5297 44.7383 37.8087 34.2674 109.4377 309.4057 78.5345 170.2227 115.6346 211.7920 54.2821 8.4908 132.2897 80.3248 267.0024 200.7564 28.4370 234.8104 255.1692 30.4769 92.5077 126.6297 21.3432 17.6430 19.6113 79.7744 78.3364 112.2764 64.1069 30.5509 100.0290 25.8913 104.3062 37.0503 66.7608 309.0819 156.5561 31.9029 54.0000 61.9654 77.9015 185.1978 149.4160 135.0170 33.2397 106.3610 152.2521 147.0774 74.1616 239.0693 49.1110 82.7048 30.5772 29.0177 106.3597 25.4447 6.5577 225.8626 146.2828 97.8982 51.8599 44.5693 184.9947 78.7916 199.6721 16.2049 177.4429 47.8307 97.9177 128.5801 12.0052 29.6633 244.8981 251.2746 160.2793 31.8398 51.3595 128.3866 70.1521 66.5456 88.5473 24.1748 89.5490 
97.7971 110.5227 230.3669 274.6426 3.7800 193.0125 39.1796 150.5340 47.0163 103.1634 254.4300 63.7476 223.6383 53.0330 67.1897 134.0431 216.2043 47.6558 27.8401 37.2436 104.8496 85.9241 294.1763 94.0201 320.8560 154.0048 263.7643 59.3898 54.5974 63.5380 60.2702 289.8575 146.4996 17.8531 201.5629 292.4788 69.3066 168.4767 84.4992 55.3806 35.9382 47.8964 76.5969 80.9770 94.4136 52.6271 77.7567 116.3146 106.0666 67.9476 82.2528 114.0044 201.1115 303.3069 143.0334 133.0615 12.1289 30.5357 69.2059 133.5749 189.4046 68.6080 77.6526 120.0373 121.9451 150.7148 363.4187 118.7521 44.9804 28.5160 237.9657 110.8343 76.7762 73.7790 23.9203 95.6015 46.0464 88.1145 62.0469 162.9986 166.8752 320.4220 46.9324 159.2153 35.1346 44.5368 255.2832 178.2221 187.5959 58.2373 173.3269 70.7544 42.2571 37.2736 222.4587 107.2752 255.8240 106.8205 36.2385 67.0561 
250.0849 34.9528 103.8500 66.7206 59.5821 140.3677 17.9821 268.9060 39.1203 176.4985 231.1432 62.8484 107.9116 135.9964 89.6396 13.3236 78.1594 152.2646 51.2142 48.2556 38.6395 94.9419 241.9676 52.5300 54.1729 140.6529 134.4169 38.5415 18.2701 186.9660 130.7307 192.0458 212.1618 32.0223 194.9274 177.3675 71.8998 35.6211 186.3858 20.5577 20.9758 0.6500 69.4044 65.2700 117.5537 59.7522 7.6885 152.2752 31.5199 98.0500 88.0474 139.2417 290.1728 57.0801 93.4584 101.9703 72.7858 113.0460 207.9417 123.3523 106.0314 7.3236 95.5001 202.4585 169.2835 168.1163 119.2872 52.0521 82.7590 27.1884 89.5921 85.9657 7.8359 30.1448 278.3933 138.7174 103.5183 22.9652 24.9560 158.3562 22.4851 90.6323 3.3305 152.6729 74.8754 102.4508 42.5376 104.7607 58.1004 279.8380 231.3642 166.9621 27.8501 67.1261 57.8405 47.4820 53.2729 164.0360 46.3355 84.3616 
116.4273 73.4794 142.2451 190.0092 20.4209 169.6679 23.5862 161.1204 25.0810 49.8142 222.7003 56.4322 142.0183 66.4908 37.1779 99.5502 133.8170 69.5351 16.7964 15.2610 63.2447 80.5483 264.7868 75.1690 242.4749 75.4836 213.9422 51.0848 34.6551 11.0370 26.1440 240.7325 98.1455 11.2882 183.2087 236.0435 34.8422 130.4815 5.6070 33.6199 19.8114 34.3600 57.0706 59.8703 59.1365 40.4827 53.4937 37.4457 66.6000 67.0346 44.4668 72.2897 199.9722 215.7460 77.6740 64.7578 24.9851 20.1857 75.9271 114.4874 125.4574 50.4449 73.8963 37.0662 63.2573 91.2781 287.7929 69.9561 46.8600 21.1604 149.6051 83.8888 54.3673 48.2985 80.0545 90.9686 47.7796 64.5477 49.8191 133.6440 117.8233 244.8680 33.0413 127.2622 8.1623 50.6259 194.8935 108.5841 124.8984 111.6685 166.8773 87.2170 26.8637 11.9945 160.5742 73.2831 178.9994 48.3865 14.6455 55.1163 
206.2112 20.1483 25.1119 102.2558 45.3272 162.3520 11.8484 237.5937 24.6187 120.1174 239.3078 63.2322 40.4859 113.7348 63.2456 52.8006 53.7589 125.2008 36.9393 29.3644 14.8075 94.2110 267.5265 64.3229 142.3116 81.8987 176.5184 46.5619 5.4784 119.3975 78.2588 222.6587 162.4456 23.4502 201.1728 209.6395 32.3627 80.3901 112.5603 10.9214 10.2312 15.8526 63.3217 61.6260 88.6195 51.9528 21.8730 80.6424 11.1667 90.0473 42.4397 79.0496 267.4536 117.0194 23.5815 35.4786 56.0819 74.1663 161.6410 124.8884 97.1621 26.9733 91.4911 124.9577 116.2751 89.9735 202.4714 25.6113 71.7116 24.3107 22.7338 84.3447 21.9971 13.9268 206.7702 125.0382 84.6762 40.1125 37.5700 151.9277 58.6340 162.6903 13.2914 144.4452 44.1811 85.7083 112.5379 36.2784 34.3904 222.4850 216.0965 142.1727 22.8574 42.4606 97.4015 50.5945 66.2623 89.1130 22.7206 73.9573 
66.5011 121.4994 258.4099 282.2750 6.6837 178.4058 41.5800 114.3144 50.2201 111.4513 228.6707 56.5890 252.1613 34.1559 69.5726 138.4490 229.8798 25.1989 28.3707 41.6949 113.7923 74.1601 267.1806 89.9542 326.9324 168.1018 253.5930 55.6768 60.1398 91.1447 84.7194 271.8095 142.1194 17.8545 178.4839 277.6621 84.4305 171.2149 112.8275 59.5364 39.0758 50.0274 72.4912 77.3816 93.9993 48.5676 81.6490 138.9333 115.4772 55.3493 100.8754 142.1443 163.3942 310.8445 164.2802 152.7247 6.6241 50.6121 54.8471 120.4374 191.6075 70.5691 65.6418 140.7226 128.6119 185.6862 360.5092 128.1278 34.5013 26.9483 263.8841 105.3136 81.4928 82.2315 40.3762 78.9414 35.3471 88.9110 60.7428 148.3268 172.4384 320.2333 49.6601 146.3394 48.1154 31.5682 261.9485 204.1354 206.0217 16.6542 144.1303 46.8560 43.0259 43.5425 225.2910 108.4994 275.7953 139.0324 45.2182 59.8277 
159.2626 93.5547 217.4824 124.9633 49.6041 38.6683 25.6697 144.2836 38.8410 145.3629 52.4670 17.2408 220.4467 86.2594 69.8130 70.7587 139.5551 103.5012 38.5630 45.9041 78.7464 33.2246 69.3131 9.1147 146.6172 145.7584 43.1691 10.9910 45.8620 180.5069 143.9308 13.5361 141.7504 23.4505 55.6528 16.3941 98.9893 79.8037 188.4814 38.9173 28.7961 27.2307 30.2003 27.0003 81.7472 28.8784 44.8213 167.4976 81.4224 45.0665 121.4982 185.3992 133.5886 134.6318 153.3383 144.7190 55.7905 112.6813 145.6921 29.3327 85.3734 33.6001 37.5422 190.7348 137.2578 231.0189 124.6832 86.8078 45.3194 12.5036 209.0092 29.7111 50.8721 68.3200 229.3407 64.5538 64.3116 32.0762 17.1163 50.6466 81.8053 108.5620 29.9418 52.9711 79.7454 62.6147 132.3060 190.7421 157.7498 207.1146 98.8662 102.8563 22.6177 61.5116 84.4620 42.8932 192.8870 198.0039 57.5849 39.6756 
228.4291 11.3956 8.9471 118.7710 49.0852 175.1796 16.2339 261.9726 31.7050 141.8622 264.2430 69.9809 21.5558 125.2284 75.6827 53.1714 74.2358 137.1491 43.0256 36.0742 24.8521 103.3520 289.4140 71.0968 147.3071 106.0205 191.9698 50.1664 3.2683 134.8057 85.6802 244.8371 189.8562 27.2809 220.3697 232.0624 35.4426 81.6667 129.0925 16.3333 14.9442 16.0038 73.2935 71.4093 105.1261 59.7865 23.8104 98.9981 15.7081 99.4794 44.3577 78.9734 294.9586 130.5425 32.7061 51.1611 61.6518 81.0937 181.0625 139.0135 118.1336 28.0577 100.8007 148.9347 139.3861 89.7964 213.5920 38.9108 79.5636 28.1760 5.7913 96.9335 20.2639 6.8542 226.9770 139.2005 94.7258 44.4920 40.1207 171.7349 64.5667 175.0385 12.7508 164.3072 49.8319 94.9929 112.4662 28.0011 19.9328 243.0790 238.7905 156.0720 28.1684 50.2556 109.3584 60.4907 53.1400 97.3772 26.0855 84.1678 
219.7000 25.0388 27.5185 147.8629 44.6845 187.2842 19.0299 258.5417 32.0427 132.5379 276.7011 72.6908 25.2883 120.6390 73.1877 68.1171 93.8051 130.6482 40.7542 33.3599 34.5147 106.1986 305.6474 78.3896 181.4856 103.3719 213.3712 54.2646 11.2961 115.4500 68.0438 264.8511 185.7524 26.0004 229.2949 253.6003 21.6179 98.7056 108.6562 21.2603 16.2245 21.7279 76.4109 75.5006 103.8632 60.8053 33.3667 83.8716 29.0513 99.8275 27.2208 55.4505 296.0371 163.8396 20.6565 42.5505 57.1148 68.4125 171.0800 145.3187 131.0701 35.7747 102.5753 133.3012 133.2638 59.2127 247.7294 47.4303 78.2592 29.1855 41.5909 103.0601 29.6727 12.6721 206.1880 139.4750 91.5084 53.5385 45.6256 178.3714 83.7113 206.8624 18.6017 170.7408 40.4887 91.9808 139.1460 7.0178 43.3137 227.5630 241.2148 151.2011 30.3965 45.2208 132.3002 69.4817 83.2638 71.5052 18.7906 84.9802 
260.6752 9.9116 56.3160 114.7267 57.6364 175.4302 20.1604 290.5904 40.6522 176.8096 277.4283 74.2391 55.8082 141.8543 92.9678 39.0167 89.7272 156.1956 52.2961 47.1384 35.6612 109.7239 294.3767 71.0652 118.9790 140.3516 186.4676 49.5433 8.9460 172.7034 113.4169 247.7800 225.3894 32.9495 230.7330 234.4188 55.5398 65.5033 169.9406 21.3054 20.7476 11.0691 81.5291 78.5630 125.7439 67.5240 19.1734 138.0570 23.0086 108.8481 67.2231 108.0083 322.1069 117.5208 67.6560 84.7377 72.2358 102.3503 212.2036 147.5287 132.3001 22.0100 108.5270 193.7585 173.1114 127.7571 190.3007 52.7363 89.0914 31.5657 44.7368 105.1035 9.9009 12.8170 270.2066 153.7621 108.7192 41.1258 37.1472 186.5811 55.4624 157.2415 7.2014 179.7059 66.4130 107.7959 85.1913 63.3690 15.7235 280.5672 259.7183 175.3643 32.7487 64.6733 102.4984 64.5818 11.3432 136.0758 38.3670 94.5251 
262.6990 51.1748 142.4250 77.4879 64.1552 128.5925 22.6356 276.0751 45.6443 196.8698 224.3724 61.7201 144.3236 142.1463 99.6815 4.8363 104.4327 159.9799 56.2429 55.4220 54.3596 93.4067 226.6018 47.9057 17.9960 165.2405 116.4672 34.5342 26.9828 210.6008 149.7173 177.8785 230.1782 35.0363 188.7867 164.1802 87.0457 16.9666 212.6209 28.1784 26.3078 5.6394 72.1119 67.4109 128.7122 62.5313 16.4820 178.7554 48.0673 99.3844 105.8755 163.5176 293.6425 60.0992 120.3551 127.5121 78.0253 126.6747 222.5431 121.2268 116.9135 3.4648 95.3045 230.5842 189.2603 199.7106 83.4186 68.7459 85.5973 28.3981 128.2115 87.3914 16.7798 41.4198 301.6555 141.7588 109.1416 20.1326 19.5132 159.7723 28.7076 65.0937 9.3762 155.2720 85.8652 107.1392 18.7037 135.9055 85.5393 297.1549 233.1616 173.4547 31.1572 76.0103 54.8064 51.5638 84.1924 191.8601 55.0791 87.6186 
230.2361 25.2899 32.7985 158.7432 46.2770 194.7932 21.2996 270.4524 35.6228 143.2330 290.1186 76.2636 22.9558 126.0661 79.3706 70.4611 104.8446 136.1714 43.7275 36.7400 39.6888 110.9766 317.9985 82.4082 188.4089 115.6013 223.1206 56.4498 12.5683 122.6418 71.2641 277.6420 199.3246 27.8739 239.5869 266.6286 23.7886 101.6368 116.6727 24.0975 18.5893 22.6593 81.5805 80.6419 112.1003 64.7800 35.5664 93.5204 32.8502 104.5533 28.2168 53.8906 309.8214 174.0989 29.7261 51.8606 59.6250 71.3342 180.2477 152.8400 142.2494 37.3347 107.3477 145.2373 144.7422 57.4970 257.1751 54.1477 82.0887 31.1762 46.9340 109.7521 30.5651 12.0240 215.1074 146.5571 96.3369 56.6361 47.4835 188.7109 88.8668 216.5006 19.3437 181.0819 43.1839 96.4201 142.9457 5.5340 43.8347 236.8283 252.7017 157.7938 33.1520 49.0723 140.5013 75.0205 83.8814 75.3898 20.7118 90.1306 
233.0281 22.3906 68.7124 68.1257 54.2854 147.9970 13.7749 256.3393 32.4106 153.8083 232.2417 62.4827 76.3146 127.4124 78.4506 28.2985 55.5904 141.9958 45.4401 40.5908 23.6815 94.2009 250.5896 55.9731 87.0460 115.1549 148.4573 41.3520 10.3508 161.5125 111.1628 201.1910 190.9233 28.5318 196.1558 186.4528 57.0416 52.6509 158.4911 13.5748 15.7435 6.4066 65.6505 62.2623 104.7969 55.9422 7.0986 124.6050 15.6262 94.6115 70.7901 116.1986 280.4463 70.2934 67.2072 76.2826 66.4924 98.5609 189.9634 122.6325 96.2909 14.4568 93.5176 172.0968 147.1802 138.1635 149.8027 36.3337 78.2984 25.5625 54.5688 83.2896 8.4152 20.9383 251.5539 132.7854 96.0411 27.6523 29.4688 153.7587 30.2393 115.2310 4.1037 147.1979 63.3737 95.8848 69.0192 76.4665 36.9836 258.2954 224.4787 157.4007 24.6063 57.4651 67.0825 44.8650 40.1429 136.0354 37.4950 79.5160 
112.9128 110.5441 249.9934 181.2937 42.0035 55.5388 31.8658 84.1380 42.8250 134.8310 23.5657 2.6850 250.6972 60.3187 66.6926 96.4906 176.3584 76.4904 34.0331 45.9734 95.6249 7.6884 69.4761 33.2093 210.9588 156.8686 103.9343 19.6336 54.3437 168.6035 140.1517 79.9181 124.3683 20.4859 18.7921 93.1322 104.0157 111.9158 180.7961 48.0243 33.5968 36.3500 31.2814 32.7404 76.9260 23.6239 59.7053 170.3277 98.8216 20.7152 127.0848 190.7028 61.1068 198.1445 170.4541 158.7910 45.2006 105.1724 113.7582 14.8310 115.2775 47.3321 11.4554 184.1448 131.4277 240.1077 199.5140 105.2951 27.6586 12.2818 244.7332 39.6985 64.4550 78.8610 194.2436 32.3800 45.7666 51.4992 30.2753 37.0133 115.7139 178.8886 38.4506 44.6481 77.3991 42.7902 180.0937 212.8347 186.7270 163.0883 38.9292 69.6951 27.9318 58.5766 132.9119 63.3535 234.8443 199.4019 59.1199 27.4007 
219.6187 76.0750 188.3170 81.9513 59.3030 73.6285 23.4649 218.0096 42.5427 177.2678 141.8452 40.6654 191.5460 118.7527 87.0925 40.3704 118.4979 137.0150 49.1614 52.2516 67.1799 64.7638 139.8283 19.8275 69.5686 158.2716 39.5445 18.0260 37.9848 204.3191 153.6923 88.9300 191.7572 30.3154 123.7242 75.7053 97.3956 40.6901 209.3951 33.3094 27.6840 17.0570 51.2207 46.2034 107.7415 46.8534 30.1351 179.7788 66.5165 74.7866 119.1802 182.9809 221.0064 75.1523 142.5564 140.8659 69.7703 125.1861 191.9330 77.7492 92.1388 17.8754 68.4774 218.7128 168.1119 225.9436 38.4786 77.4703 68.0274 20.6010 176.1490 57.0139 35.6970 57.6951 277.1159 107.0837 90.3073 14.1421 5.1544 108.0965 48.3680 25.7759 20.6073 106.3155 86.5734 88.3122 74.2173 171.3441 127.8813 262.5557 171.7341 143.4736 25.7090 71.4259 43.4270 39.3589 146.2817 204.1331 58.8846 65.7873 
255.8775 2.3436 39.5441 125.9020 55.3765 182.0440 20.2393 288.6526 39.5362 170.2026 283.5482 75.5368 36.9429 139.4166 90.4310 47.2322 91.7228 152.8277 50.7037 44.9233 34.8120 111.1924 303.2715 74.6394 137.4797 134.6935 197.5628 51.7705 6.8260 162.1320 104.1396 257.8500 221.1704 32.0271 235.3691 244.9202 48.2384 75.0697 158.5188 21.3222 19.9832 14.0456 82.3471 79.8384 123.5257 67.5370 23.0816 128.0776 22.3527 108.9374 58.2441 95.1548 322.4661 132.2509 56.8477 75.9815 69.8524 95.7003 206.5448 150.4302 135.4610 26.0416 109.3851 183.5462 167.6270 111.1663 208.8799 51.8216 88.3014 31.7812 31.4310 107.3025 15.1335 6.7954 259.3090 153.6203 106.8105 45.3415 40.1046 189.0870 63.9812 173.6252 10.2540 181.9281 61.3601 106.1148 100.2515 47.6471 3.7465 272.5534 260.7385 172.8212 33.0166 61.4310 112.7240 67.5022 28.2676 122.4602 34.3708 94.4344 
296.4887 70.8213 191.5923 124.3810 72.6120 130.2025 31.6653 306.4594 58.6728 237.5836 244.3976 67.6899 189.4535 159.2054 121.4910 23.5332 152.3189 179.0843 67.0403 68.6553 78.3583 100.9399 233.2343 53.0387 43.0666 211.1382 121.4167 34.5151 38.0841 250.0472 178.2452 191.3620 274.7863 41.6941 202.2501 181.3649 108.0088 7.6485 255.5899 40.7909 35.5540 13.5045 85.8262 80.8400 155.9525 73.4277 30.9647 222.0434 70.6257 109.8687 130.0587 195.6671 323.6978 107.4637 157.4486 165.8124 88.7213 148.3326 255.7513 134.4969 153.5631 14.2566 104.2806 280.9400 230.8815 241.4896 72.4208 96.9012 95.9665 33.7933 177.3268 103.7313 28.2095 55.1238 345.2784 158.7074 124.3948 30.2909 18.5409 182.7608 57.2216 79.6969 16.9258 179.6150 103.0615 120.6774 24.5196 175.5002 118.7611 334.4877 257.1980 193.0826 40.3245 92.1619 84.2223 70.0498 121.5768 231.9613 67.8785 101.2670 
26.8465 123.8714 268.0030 262.5797 18.4911 145.0452 39.9532 55.7655 48.4364 111.8216 173.1935 41.7240 263.9186 7.7435 65.2731 131.5421 222.0245 7.1070 26.9506 42.6642 112.8273 52.2793 210.9616 75.9080 305.0910 166.3996 217.1479 46.2513 61.1330 116.3990 106.0573 222.6792 122.5800 16.5130 132.6930 231.2385 94.5280 160.0308 135.9042 58.2997 38.5923 48.0312 58.9349 63.9776 83.3351 37.8653 78.4620 151.3752 115.4484 33.4421 114.0684 164.8587 98.4571 289.1943 173.4872 160.3002 15.5565 70.0744 47.1059 91.0899 172.6803 66.4683 43.8238 152.0655 123.6713 212.3576 325.1996 125.7769 17.3566 21.8505 270.2775 86.4304 79.9438 85.1491 87.0305 48.8543 20.6471 81.0621 53.7019 113.0115 162.3509 289.9311 48.4479 113.3511 58.8911 12.8987 247.8283 216.7552 209.8114 42.2814 91.8806 11.3457 39.0418 47.1171 206.0703 98.1115 275.9802 164.5313 51.4485 43.8524 
232.8173 23.1447 29.0971 156.0819 47.1174 194.1045 21.1421 272.4907 35.9141 145.6666 290.1266 76.3490 18.0500 127.4209 80.3745 68.6608 103.3212 137.8181 44.3764 37.4332 38.8512 111.2087 317.3810 81.9131 184.5261 117.0487 221.4170 56.1684 11.6715 126.1630 74.1395 276.5206 201.4386 28.2634 239.6974 265.3141 25.8543 99.6132 120.3573 23.7028 18.6059 21.9801 81.7679 80.6930 113.1871 65.1160 34.5334 96.3888 31.4829 105.1203 30.7708 57.2325 311.4729 170.8057 30.9057 53.3389 60.5909 73.4979 182.7846 152.9273 141.7364 36.4611 107.7245 148.5816 146.7932 61.8866 253.6457 53.5883 82.7647 31.2737 42.9660 109.7194 29.3364 10.4822 219.1983 147.4265 97.3942 55.7797 46.9601 189.0803 86.8834 213.3286 18.6172 181.4660 44.7785 97.4141 139.6526 4.5962 40.2137 240.2496 253.8585 159.3483 33.1464 50.1619 138.3691 74.4346 79.3823 79.4583 21.8709 90.6489 
235.7377 11.5941 10.5446 131.5870 49.8184 182.8062 18.4216 271.1325 34.4617 148.7383 276.7059 73.2187 10.9319 129.0039 80.0846 56.7658 85.9321 140.7703 45.0158 38.2001 30.4541 107.5876 301.5040 75.2967 156.9770 114.7188 202.6028 52.4566 5.6670 137.6726 85.8026 257.7785 199.8871 28.5598 229.8560 245.4042 34.8060 85.9648 132.2513 19.3279 16.9036 17.4331 77.8286 76.0629 111.3525 63.0784 26.8740 103.6567 21.0117 103.3364 42.7395 75.2622 306.2260 143.2971 35.0665 55.7296 63.0760 81.7372 187.0130 145.9034 128.8181 30.2583 104.8874 155.6368 147.3027 85.1217 225.4085 45.4057 82.4697 29.8940 17.1175 103.1121 21.9267 4.3069 231.4147 144.9273 98.1514 48.1917 42.3115 180.9064 71.2824 186.8677 14.0022 173.4401 50.5609 98.1612 118.4536 22.3733 20.5779 248.5659 248.3736 160.7658 30.6472 52.4442 119.0590 66.1787 55.4244 96.7164 26.3360 88.3779 
134.0142 91.5046 208.4994 125.9928 44.3324 51.3568 23.6647 119.4675 33.5946 122.5064 40.4186 12.4037 212.0981 73.3989 57.5631 74.7242 131.7938 89.6426 31.9493 39.6009 74.6791 27.6940 80.5142 16.7247 159.3210 127.0773 65.9785 15.8456 44.3719 160.1093 130.9294 42.3160 112.7179 19.2874 49.4410 42.2805 91.8125 87.2733 167.5413 36.7569 26.2101 28.0736 19.8968 17.8038 65.2590 20.2418 45.1758 149.0129 78.5761 36.1023 113.2048 173.7936 108.0418 140.0437 143.5060 132.7799 48.7369 101.5942 122.7822 17.1053 74.4849 35.6138 29.9733 165.4878 114.4354 216.5880 147.2357 80.9314 36.9242 8.4624 201.5224 17.9171 51.4927 66.2882 202.2916 49.9038 52.8824 34.7547 21.5984 27.8018 84.3262 124.8264 30.3356 30.1387 71.7271 52.2524 141.7491 181.7474 154.3993 181.5910 78.0849 87.7765 19.1561 53.1586 89.5038 40.1162 192.4994 181.6814 52.6329 28.2055 
102.1986 70.5317 147.8947 112.2129 32.1118 105.4797 13.7384 115.7799 11.6521 47.1810 119.4891 30.1016 154.4121 59.5046 15.2135 73.9868 86.2335 70.9435 12.8180 15.2571 49.2037 48.3780 165.1563 39.7175 170.5964 48.2536 124.5197 31.6065 32.4234 91.6827 82.2553 130.3691 35.1571 7.6345 107.2288 122.5150 58.4636 95.4615 92.2658 23.8086 13.7223 25.7820 15.6087 17.6881 12.4255 12.2654 38.4579 73.8744 56.2802 42.1583 74.5814 121.2854 127.7845 135.1766 91.1337 75.1579 34.0230 64.9144 77.8043 56.7645 45.1302 35.6020 44.3299 73.9045 34.5326 149.2909 190.9868 48.9613 32.7452 5.4203 145.6093 28.7380 44.6697 49.8449 136.4187 53.2097 37.2184 38.3343 31.6129 55.0077 78.0992 154.0619 26.3270 47.5480 42.0075 41.3204 146.8418 127.5326 119.2832 135.9630 100.7870 75.4209 7.9245 23.7552 93.8344 32.6745 159.9954 114.4533 31.4090 22.1080 
233.0435 20.2366 22.4595 149.5849 47.7043 191.0691 20.3195 271.6393 35.3094 145.7604 286.2931 75.4340 11.9041 127.5643 79.9272 65.6790 98.3213 138.2934 44.3614 37.3854 36.3638 110.1294 313.0413 80.1344 177.5680 115.5801 216.4536 55.1823 10.1052 128.5308 76.7723 271.4327 200.3040 28.2294 236.8811 259.9188 27.7975 96.1873 122.7263 22.4194 17.9960 20.8375 80.5465 79.3065 112.2636 64.4182 32.5701 97.4030 28.6303 104.4806 33.5521 61.6584 309.6013 163.6552 30.4652 52.9014 61.0786 75.3429 183.3597 150.8887 137.9596 34.8923 106.8311 149.5018 146.2044 67.5625 246.4308 51.0547 82.5199 30.8358 36.0521 107.7839 27.4925 8.6419 221.7445 146.4989 97.3474 53.7998 45.7596 186.6077 82.8611 206.5138 17.4640 179.0179 46.0064 97.3928 134.3533 6.2099 35.2803 241.8616 252.0260 159.4057 32.3738 50.4675 133.3037 72.1299 73.4023 83.3595 22.7905 89.8435 
91.5395 118.1703 249.0209 287.8501 0.4025 193.0641 41.8338 143.0794 50.7697 113.8168 253.8036 63.4032 241.6903 48.4781 72.4339 139.7111 230.4284 41.3593 30.0886 41.3237 112.4969 84.3839 292.4828 95.7660 332.8189 167.9302 268.3769 59.7181 58.6002 79.4231 72.5889 292.8914 154.2087 19.1393 199.4947 297.2077 77.8483 174.2249 101.4393 59.2582 38.8217 50.2143 78.7380 83.3666 100.0270 53.8321 81.9222 131.9109 113.5686 65.8810 92.3323 127.8100 194.6013 316.8708 156.9015 146.7586 10.5600 40.1839 69.0739 133.7612 198.8353 71.5078 75.9460 136.4773 132.5420 168.5574 372.9806 127.4549 43.1623 29.3353 256.0668 113.6590 80.9069 79.2914 30.3293 93.5657 44.8517 91.4978 63.4142 164.6044 174.7690 330.6257 49.4421 161.5747 42.2953 42.0214 264.9636 194.0676 200.4983 45.5309 169.0304 64.6784 44.5968 42.4164 231.5129 112.2442 270.9736 123.7437 41.4015 67.7683 
122.0500 85.7627 170.5845 229.0303 15.9303 188.1944 30.4579 172.6299 35.3352 77.0909 251.2013 63.6052 166.3630 68.3200 53.1441 114.2360 169.0705 68.4059 23.2062 25.3865 79.7420 88.8182 292.1605 86.6801 277.9794 110.9999 243.7752 56.9777 41.5867 19.8862 24.1629 274.2432 128.3145 15.2477 203.4074 271.8455 42.9640 147.6476 34.4309 42.6031 26.6279 39.9460 69.5612 72.8466 79.3211 49.1379 63.6028 68.4948 81.4280 73.4661 51.7159 74.8184 218.3248 255.9039 98.8738 89.4363 22.6681 5.6989 81.9969 130.6516 157.9382 58.4248 81.4910 74.4817 93.6005 98.5403 326.4405 90.2482 50.9245 25.9014 179.4469 100.7872 62.9087 56.1684 64.1123 101.4488 52.5255 75.9895 56.5007 156.2650 139.5366 282.5147 38.4690 150.5086 13.1679 53.7473 220.9691 128.3598 145.7832 102.9733 184.0406 89.6859 34.6672 23.5662 190.3486 90.2598 205.9718 56.0045 20.2148 65.2186 
294.3557 71.5781 192.8290 123.1542 72.3410 127.6100 31.5311 303.6932 58.3603 236.3217 240.6244 66.7227 190.8835 158.0583 120.7130 24.1398 151.9155 177.9433 66.6302 68.3659 78.4362 99.6163 229.1817 51.8011 42.3068 210.2271 117.9624 33.7290 38.3616 249.4171 178.1636 187.3644 272.6913 41.4264 199.2574 177.4348 108.2272 7.6205 255.0339 40.7558 35.4608 13.7033 84.7952 79.7952 154.7619 72.6521 31.0886 221.5897 70.9638 108.7130 130.3868 196.2371 320.2888 106.2445 157.8883 165.8553 88.2820 148.0904 254.1545 132.5036 151.9293 14.2781 103.0342 279.8944 229.5196 242.2444 68.0076 96.7458 95.1215 33.4056 178.5772 102.2731 28.7400 55.6338 343.8810 157.0659 123.4555 29.6279 17.7601 180.3403 56.9455 76.4832 17.1978 177.2966 102.9291 119.7543 26.3969 176.5255 120.0454 332.7100 254.3262 191.6284 39.9582 91.7968 82.6968 69.1858 123.5919 232.1077 67.9053 100.2066 
217.7361 34.1858 50.3051 168.9102 42.4692 196.4111 21.9187 259.9878 34.2369 131.8862 288.0233 75.3595 43.5975 119.4958 74.5615 77.5909 111.0934 128.3361 40.6540 33.5882 43.4581 109.2340 318.5029 83.9011 203.5197 109.0623 228.7441 57.2618 16.4344 106.8347 58.6560 280.3978 188.8924 26.0161 237.4688 270.2444 14.8962 109.5497 100.1954 25.7992 18.5609 25.3675 80.1781 79.8252 106.6876 62.8727 39.6919 80.9447 38.7739 101.4290 17.2891 40.7470 300.6997 186.7626 28.2638 46.7070 55.1555 61.7583 168.2248 151.3626 143.4841 40.7595 105.0099 130.0712 135.0480 40.1117 270.3567 56.6454 78.6555 30.5307 64.3853 109.0702 35.5477 18.4770 196.4493 141.8346 91.1745 59.8400 49.3704 185.7472 96.6136 228.3517 22.2765 178.1047 36.1123 91.5494 155.9768 21.3966 58.8421 220.8957 246.0453 150.1823 32.9677 44.1078 148.4880 76.9884 102.4080 57.6677 15.6737 87.2653 
201.0336 43.0229 105.8168 10.2790 50.8732 114.1578 9.6438 214.9177 25.7584 132.6318 175.7672 47.8258 114.6964 110.4915 64.3192 29.7246 40.3774 125.5738 38.5740 35.6451 27.6818 74.8224 196.0637 37.3159 70.8626 97.2995 102.7890 31.3683 19.5305 154.5376 113.5068 143.2801 154.0561 24.0203 152.8822 126.8454 64.4387 47.4818 152.9233 12.6463 13.6838 8.8888 46.7337 42.6531 82.8550 42.3491 9.3552 119.7147 29.2945 77.1579 80.7775 131.5035 229.2754 22.9670 82.4729 81.5636 60.3489 97.0846 165.6720 91.6299 55.7381 12.0451 74.9016 156.1252 122.8290 158.6337 110.5000 32.4205 65.4047 18.4692 94.0706 56.6531 19.6938 34.2470 233.0161 107.3250 81.4968 12.5718 21.0470 113.5042 13.4458 72.4919 10.4769 107.5989 63.0309 81.9519 69.6349 104.6948 72.0882 233.4732 181.0738 136.0688 15.9786 51.8344 25.9388 21.3617 85.7024 144.3892 39.7214 61.7137 
153.4371 46.9518 80.5648 131.8924 32.7220 158.0457 13.2306 188.9388 15.0518 66.3289 215.3983 55.7007 87.0836 86.3673 37.7549 74.1871 76.2424 94.3551 22.5168 12.9456 32.8811 82.4086 253.3198 64.6690 185.6716 40.6857 183.7402 46.4588 20.1700 65.1169 45.9649 216.2381 108.3678 14.6303 181.0924 206.3641 21.6050 102.6897 54.2853 18.0499 8.9740 24.3957 52.0682 52.5993 58.6066 40.3207 35.7854 21.9224 37.5192 73.8542 32.1662 65.8635 220.2679 154.3754 33.0472 15.0264 39.6546 46.3267 111.8680 110.4830 90.7890 37.2417 77.7541 56.2595 66.0504 76.0805 235.0765 35.5216 55.7556 19.5870 86.1292 73.9695 37.8015 30.6690 141.8259 100.4737 61.8648 48.5193 41.6371 128.8931 82.7425 192.8423 22.7720 121.3418 22.4316 64.5975 150.3843 64.0825 79.9169 163.6004 179.6795 110.0825 19.2921 20.3024 118.6107 52.8481 122.8883 51.9044 10.2190 57.6416 
187.6246 99.2391 235.1333 136.9521 55.6817 28.0071 29.6597 172.0846 46.5436 173.8075 76.4539 24.2102 236.6915 100.6320 85.3510 70.2064 157.6998 119.0127 46.5683 54.2473 87.5014 40.9207 65.0553 10.7040 141.8449 172.5450 26.3929 5.6924 49.3794 205.8307 160.6611 22.4142 176.8622 28.4676 69.0250 31.9882 109.3581 75.3432 215.1065 43.6563 33.1865 27.8450 43.1649 39.6234 102.4047 39.0186 47.3702 192.5083 88.5236 55.3230 133.4263 201.6477 162.9008 141.8999 169.4281 163.1176 63.8644 126.3573 171.9640 46.0071 107.1294 33.6149 46.7546 223.0859 166.2771 251.6290 107.9558 98.3882 54.7244 17.5086 225.3515 46.3012 52.4932 72.8182 260.7854 81.1303 77.2358 33.2814 13.4941 76.6370 85.7576 102.2989 30.9924 79.3017 90.0456 74.2307 127.9648 206.4355 167.2579 235.9709 123.0544 119.6511 28.3631 72.0946 89.7814 52.0215 200.6696 219.9400 64.4210 52.7682 
64.7350 84.0067 172.6658 173.0997 20.6965 133.3930 22.5153 98.0350 21.7064 22.6497 156.5551 38.4857 174.9106 40.5100 18.2161 96.7152 131.6989 46.6064 2.6880 14.9857 67.6640 55.6284 203.1418 59.0044 227.6103 72.1548 174.4795 40.9274 39.6942 56.7205 64.0583 183.9931 34.6641 1.8795 130.8438 181.7242 56.9669 123.2158 63.1740 34.5323 20.5011 34.0606 35.3612 39.5174 27.5364 21.6834 52.9690 67.4358 73.0486 41.7531 71.6583 112.4955 126.2807 198.5151 103.0657 86.6453 19.1202 44.7416 34.0451 77.8854 99.1804 48.0835 48.7006 50.4267 33.1429 141.4754 255.6468 72.0272 26.4008 12.6721 175.0603 56.7922 56.4927 57.4694 77.5335 53.0093 22.3252 57.1420 42.8584 84.5068 111.4136 216.7741 33.9271 79.3511 31.2686 27.9827 188.0688 140.5547 142.3820 84.4533 105.7526 55.0223 20.6229 14.4213 142.4091 60.7204 194.4159 98.8692 28.7083 28.9413 
165.3064 76.3317 178.0124 79.4888 48.6569 63.1253 18.4279 160.7609 30.5185 129.8455 90.1058 26.0428 183.4020 90.6291 60.7773 55.0705 100.1952 107.0604 35.3981 39.1148 59.7198 45.8433 111.9634 9.9906 112.3745 117.4610 45.4644 16.9239 36.7215 164.7526 129.8942 54.5443 129.8443 21.6230 86.7208 35.9547 85.3086 64.8987 168.9328 28.8059 21.9889 20.7634 27.0915 22.1725 71.7155 28.2144 32.8160 143.4018 63.1442 53.1905 105.6447 164.7380 158.4058 88.9041 126.3690 118.4961 55.2406 104.2188 144.2988 45.9443 53.6657 25.0464 48.0127 167.6214 119.5646 203.4114 102.2247 64.7432 49.3625 11.3447 168.8610 25.1979 40.2832 56.5748 222.6353 73.9364 66.0177 19.6431 14.8117 60.1449 56.8643 76.2207 23.3218 57.7581 71.4653 65.8135 106.8835 159.8789 128.5768 208.9421 120.3420 109.7903 15.8016 54.4990 50.8704 23.9892 156.7807 175.2441 49.9535 41.4152 
193.4680 25.8782 43.5426 85.4916 43.9837 150.6329 8.2706 221.8080 20.0750 108.8582 219.0890 57.9206 57.7624 107.1236 55.9124 50.2473 35.9653 118.7934 33.6061 26.0550 6.6408 87.2031 248.4999 57.9851 132.9296 68.0314 161.0742 43.1228 8.3303 115.3055 78.8977 202.6711 145.4729 21.2989 185.7392 189.1898 35.4974 76.4891 108.5014 6.3246 7.0264 15.0021 55.7795 53.9632 78.1271 46.4039 19.4054 74.9909 10.5000 83.4935 46.9510 86.0851 248.3109 101.8163 30.0491 33.0225 53.5664 73.3335 151.3551 113.6324 79.8685 24.9877 84.6438 114.7932 103.1974 99.4305 187.9287 14.8824 66.7027 21.4411 38.7351 74.2550 22.2892 18.9578 198.9826 115.2974 78.7522 35.3293 34.6459 136.7405 51.4914 147.8831 13.0906 129.2961 43.5424 80.2002 108.1766 50.3271 43.8352 212.6815 199.9118 133.9598 18.7506 39.0760 84.7018 41.8094 73.1147 92.2622 23.2937 66.8353 
56.8400 118.5191 251.7637 271.5757 7.9427 171.5069 39.8344 104.7314 47.6087 103.2257 216.9352 53.4967 246.3937 29.6503 64.6750 134.4632 220.9715 21.0380 25.9151 39.3252 109.8016 70.2173 256.3528 86.1025 316.9871 159.5500 243.7850 53.5825 58.4816 87.6200 83.4286 259.8777 130.5542 16.2820 169.7370 265.3826 82.5384 166.3712 108.4059 57.3221 37.4412 48.5501 67.9829 72.8864 87.1935 45.0799 79.0129 132.9602 111.8884 51.4621 99.0056 140.7662 152.1953 299.7613 159.5506 147.3913 4.5290 50.2056 45.9347 113.8203 182.1980 68.3846 61.7099 132.5983 119.7034 183.2727 348.9083 123.1710 31.2130 25.2163 256.8030 99.4000 79.3023 80.3438 38.7252 72.8591 30.8045 85.6248 58.6618 139.1991 166.5650 309.1536 48.2619 137.2140 46.7754 27.6094 254.7562 199.5083 200.9487 8.8770 134.6128 41.8611 40.7859 40.8734 216.8172 103.6162 269.0417 136.4645 44.0143 55.2635 
64.2270 123.5791 263.6380 285.1173 7.9766 177.1766 42.2479 110.6105 51.2289 114.8799 226.6464 56.0110 257.2947 32.3183 71.0921 139.6693 233.4401 22.8128 29.1237 42.9148 115.7986 72.9995 264.6470 89.9335 329.2457 171.9874 253.4995 55.4125 61.2250 96.3857 88.6801 270.9058 144.2289 18.2784 176.3369 277.3317 87.0260 172.2846 118.2548 60.5337 39.8461 50.5603 72.7259 77.6640 95.4835 48.6615 82.6325 143.6496 117.4563 54.1248 103.9777 146.5709 159.6188 313.6728 168.2646 156.6555 7.6604 53.7899 55.8007 119.5503 193.6210 71.1779 64.4723 145.9143 131.7666 191.3001 361.6887 130.3938 33.5859 27.0467 268.8565 105.5350 82.5118 83.7735 47.1414 77.5658 34.9091 89.5313 60.8404 147.7489 174.1637 321.8177 50.2710 146.0659 50.3897 30.5324 263.9279 208.7272 209.5228 14.2218 141.3490 44.2320 43.5606 45.1945 227.0257 109.5127 279.7393 144.3548 46.7986 59.6621 
174.2610 34.2976 58.5711 90.5320 40.0083 146.1520 6.8694 202.7867 14.5235 89.1655 205.8435 54.0529 70.9890 97.2005 45.4293 56.5685 37.2323 107.9963 28.2278 19.9217 12.5723 81.6255 238.9802 56.2479 144.6744 47.4492 159.0895 42.1698 12.8794 98.9928 69.9665 194.9271 123.2045 17.9609 175.2307 182.1605 32.3794 82.6837 91.2392 7.4211 3.7359 17.6132 49.6554 48.4605 65.0397 40.9591 23.5864 57.2769 19.8830 76.7238 44.1403 82.9489 228.6103 110.1694 29.6263 21.7607 48.1232 65.2762 133.7669 105.8184 70.7962 27.8696 78.5131 91.8384 83.2061 96.0777 194.6372 12.6628 60.4847 18.9729 57.3508 67.5942 27.3863 23.9922 178.2352 104.9997 70.2414 36.7485 35.1723 124.8157 57.7656 153.7085 16.1276 117.2312 37.3573 72.3692 119.2461 57.4902 58.1816 192.9169 184.2173 122.1907 15.7947 31.6265 88.0648 39.3518 91.5093 82.2443 19.8639 59.5647 
150.9129 61.1516 111.6628 182.3427 27.0025 180.3625 22.0790 195.4085 25.9295 73.8948 246.3741 63.2132 110.9340 84.5303 47.5849 93.2477 122.4892 89.2568 24.3264 18.6109 54.6883 90.8752 285.4504 78.6004 231.8678 76.9724 220.7716 53.6771 28.5601 39.7961 19.1258 255.9480 126.5534 15.9613 203.0485 249.0881 18.9644 125.0000 29.0351 29.9317 17.8547 31.6421 64.4953 66.2352 73.1385 47.8206 48.9895 32.3458 56.5797 79.0868 25.9227 49.5972 235.3255 206.5178 55.4333 47.1580 34.8001 27.4860 107.0499 127.6100 129.0682 47.6348 84.9411 59.3872 82.8049 60.0864 284.9608 62.3603 57.8308 24.1620 121.1787 92.1456 48.6401 38.9737 116.4552 108.6419 62.5580 63.2229 50.1661 151.5178 111.0683 241.3223 29.7321 144.4423 7.8710 64.6185 184.1853 80.6946 104.1760 147.3303 194.7367 108.7325 28.1018 20.6191 156.8610 73.7239 155.6327 20.9075 5.0113 65.9306 
138.1085 51.2076 93.8681 119.5689 31.8225 144.4244 11.0194 169.5031 8.9009 51.1141 191.1834 49.2704 101.5596 78.5018 27.2527 72.1500 68.4230 87.0688 18.0844 7.9041 32.5168 73.8753 230.8591 57.7278 177.4113 18.8311 166.9929 42.5283 22.1157 65.6941 53.0423 193.4884 85.3548 11.7568 162.5218 183.5646 30.8440 98.9551 56.5995 16.8512 7.1561 23.8801 42.8063 43.4632 44.1500 33.2363 34.5817 23.5683 39.1410 65.7374 42.7908 79.6605 196.6053 142.8455 45.5667 26.4055 37.1565 48.8817 99.6787 96.9345 73.2002 35.6880 69.3381 45.0869 47.1497 94.4090 220.3706 32.1314 49.5405 16.0160 96.5689 62.0968 38.2468 34.5901 135.7177 88.3010 54.5260 44.3420 38.5800 110.3185 77.8332 178.8162 22.8084 102.7711 25.3778 57.8849 146.3791 78.5446 86.9448 153.4519 159.6660 100.2679 14.7660 16.4963 107.8486 44.7204 128.4919 66.2193 15.1692 48.5671 
133.8874 62.5381 116.0386 170.0000 25.4944 167.9812 19.8867 175.7153 21.1623 54.6710 224.2609 57.2967 117.5763 75.8911 37.0572 90.4263 113.1245 80.8926 19.0744 12.9190 51.9453 82.9040 264.9465 72.3838 222.7278 60.7600 205.6018 50.1096 28.8309 32.4657 26.9219 235.5025 103.2880 12.6701 185.9493 228.6925 25.1761 120.7962 18.8767 27.9342 15.8324 30.7185 56.2269 58.1848 59.3502 41.2331 47.0611 18.0703 55.4460 71.1898 34.3425 62.6805 212.3142 194.5761 58.2241 45.0644 31.3659 28.6001 92.1391 115.2530 114.0423 45.7781 76.9672 36.8033 63.0179 76.3196 270.8153 57.3974 51.4607 20.9543 123.5878 81.6574 48.0547 40.6881 106.0698 96.7603 54.5213 59.2082 47.3214 134.5791 105.4817 227.8353 29.1796 127.5816 9.0200 57.3616 178.9894 87.7390 106.3982 134.5325 175.5255 98.2081 24.3170 13.3767 146.5083 66.5474 156.6570 37.5183 8.8131 57.2948 
84.9121 89.8715 196.3583 143.8907 33.6086 83.8220 22.2075 78.2392 26.0413 78.4743 72.6240 16.7160 200.0498 48.9223 35.2091 85.4590 128.6765 62.7202 18.8725 28.2792 71.2694 29.3316 123.9706 35.0791 191.3787 97.7916 113.8282 26.3591 42.9420 119.3796 105.1990 103.0200 56.5421 11.0392 68.6582 102.7654 78.7096 104.4838 126.4968 35.2772 23.0345 31.0324 10.9355 15.5810 35.6017 3.9598 48.7539 115.2981 76.6818 24.3612 97.8139 151.4065 75.6073 164.6775 127.9637 113.6050 34.4514 79.1843 76.3236 30.7741 73.8504 41.4562 25.1485 117.5063 72.4200 189.2187 196.7599 75.5451 21.9429 3.7216 193.0026 22.2933 54.4913 63.7323 147.1129 27.5800 30.2543 44.2326 31.1640 20.0470 96.1079 165.9506 32.3240 16.4438 55.9961 32.4497 164.4719 167.4487 151.9047 130.6163 55.6898 59.9681 16.5680 37.1118 111.2830 45.2299 196.8613 150.2184 43.4043 5.3046 
110.4458 66.1547 127.4707 154.1862 24.5992 149.1407 17.5089 146.9926 15.2324 26.0678 190.6184 48.3006 131.2550 64.0407 21.1358 86.9840 103.7148 70.0343 11.3772 5.2425 50.5847 70.8253 233.7118 63.0903 210.5183 42.4553 182.9437 44.6976 30.2887 38.3568 42.9239 204.5958 68.0811 7.8142 159.9446 198.0595 36.2402 115.0770 31.4611 26.3074 14.1296 29.7289 43.7459 46.1088 38.4719 31.2296 45.0616 22.6938 55.9933 59.3984 47.9742 82.4818 177.9742 179.1179 68.0707 50.9982 27.7075 35.7768 72.5516 96.4618 93.1586 43.4305 64.9369 4.4720 33.0831 101.2439 250.3391 53.3314 42.1777 16.1047 131.9515 65.9021 47.8895 44.3221 98.3096 78.9845 43.1443 53.6881 43.1310 108.8435 98.6014 208.7338 28.8090 101.9866 17.9539 47.1576 172.2959 101.7650 112.3242 119.8300 146.6678 83.5673 19.0581 3.5474 132.4421 56.6811 160.7371 62.6787 16.1632 44.2096 
144.5143 124.1697 285.1557 210.4446 48.9443 43.1337 38.5154 112.5612 53.9743 172.9764 45.9403 12.9265 283.7500 75.4255 87.6165 104.8264 209.3590 92.5643 44.5398 57.6755 112.0451 13.0938 41.4780 37.5682 227.5193 195.8516 108.2011 17.2086 61.8934 202.6768 163.8302 87.0858 170.4044 27.0512 17.1777 107.4779 120.6064 118.3273 217.6290 56.7092 40.6573 40.1990 47.1812 47.7121 104.3396 36.6808 67.5589 206.6791 113.6801 31.9383 146.2854 216.6112 91.6739 224.9890 198.2601 188.4298 54.4654 123.3992 145.3828 34.7705 146.4526 51.9346 21.6013 228.7975 170.7024 273.5300 207.6685 125.4294 38.2106 18.5311 278.8327 58.2812 71.3016 88.7552 231.7177 52.7707 61.1029 58.1983 31.1559 69.3128 130.7240 194.1110 42.7090 76.8704 91.8690 55.6986 192.2367 242.4135 209.6946 194.3002 66.7158 86.4272 35.9955 73.0407 151.8654 77.8629 260.1906 232.1052 69.4874 44.4875 
